Sample	
Comments	
Filename	C:\WINDMAX\DATA\USERS\GEO\GEO_ER~1\Pyrenees\BULKMA~1\2M1-std2.raw
Goniometer	Ultima IV In-plane
Attachment	Auto sample changer (10 samples)
ScanningMode	2Theta/Theta
ScanningType	Continuos Scanning
X-Ray	40kV/44mA
DivSlit	2/3deg.
DivH.L.Slit	10mm
SctSlit	2/3deg.
RecSlit	0.3mm
Start	16
Stop	44
Step	0.02
Speed	0.3
Offset	0
  16.000  489.678
  16.020  863.828
  16.040  574.869
  16.060  747.770
  16.080  518.973
  16.100  563.346
  16.120  860.512
  16.140  956.909
  16.160  732.115
  16.180  952.652
  16.200  628.542
  16.220  734.368
  16.240  835.831
  16.260  689.198
  16.280  610.832
  16.300  897.176
  16.320  555.583
  16.340  437.459
  16.360  643.397
  16.380  417.047
  16.400  599.723
  16.420  442.635
  16.440  732.908
  16.460  759.351
  16.480  769.393
  16.500  693.976
  16.520  540.008
  16.540  849.959
  16.560  826.619
  16.580  496.449
  16.600  865.199
  16.620  803.579
  16.640  657.306
  16.660  856.895
  16.680  810.760
  16.700  467.487
  16.720  743.395
  16.740  752.404
  16.760  813.919
  16.780  725.596
  16.800  799.782
  16.820  705.448
  16.840  852.300
  16.860  805.151
  16.880  603.498
  16.900  521.733
  16.920  646.420
  16.940  485.441
  16.960  662.449
  16.980  724.092
  17.000  511.253
  17.020  462.096
  17.040  838.221
  17.060  612.331
  17.080  741.473
  17.100  416.949
  17.120  499.152
  17.140  820.641
  17.160  455.377
  17.180  555.674
  17.200  619.464
  17.220  884.029
  17.240  901.351
  17.260  711.222
  17.280  556.548
  17.300  767.179
  17.320  521.608
  17.340  797.339
  17.360  693.924
  17.380  589.475
  17.400  612.788
  17.420  589.580
  17.440  546.868
  17.460  884.200
  17.480  777.559
  17.500  926.555
  17.520  893.217
  17.540  515.282
  17.560  914.602
  17.580  913.470
  17.600  730.002
  17.620  922.015
  17.640  852.751
  17.660  700.797
  17.680  918.247
  17.700  697.434
  17.720 1052.700
  17.740 1194.028
  17.760 1104.160
  17.780  828.798
  17.800  898.125
  17.820 1311.025
  17.840 1335.054
  17.860 1040.051
  17.880 1262.955
  17.900 1427.726
  17.920 1495.414
  17.940 1113.649
  17.960 1359.960
  17.980 1104.260
  18.000 1413.205
  18.020 1124.096
  18.040 1250.946
  18.060 1097.240
  18.080 1176.903
  18.100 1141.676
  18.120  930.125
  18.140 1347.126
  18.160 1273.083
  18.180 1063.410
  18.200  825.666
  18.220 1169.045
  18.240  660.917
  18.260 1077.015
  18.280  923.955
  18.300  896.119
  18.320  651.883
  18.340  573.733
  18.360 1044.875
  18.380  684.208
  18.400  492.216
  18.420  671.864
  18.440  985.144
  18.460  960.446
  18.480  541.037
  18.500  911.025
  18.520  654.695
  18.540  515.732
  18.560  557.639
  18.580  514.313
  18.600  991.372
  18.620  722.706
  18.640  862.617
  18.660  648.846
  18.680  967.696
  18.700  842.501
  18.720  948.859
  18.740  578.747
  18.760  956.799
  18.780  753.552
  18.800  947.240
  18.820  624.349
  18.840 1000.704
  18.860  574.406
  18.880  492.907
  18.900  817.138
  18.920  882.805
  18.940  918.226
  18.960  903.219
  18.980  969.678
  19.000  712.468
  19.020  895.976
  19.040  985.252
  19.060  581.271
  19.080  635.388
  19.100  453.014
  19.120  457.695
  19.140  744.391
  19.160  881.194
  19.180  653.685
  19.200  956.509
  19.220  558.421
  19.240  714.480
  19.260  716.399
  19.280  572.773
  19.300  592.931
  19.320  568.393
  19.340  719.500
  19.360  720.151
  19.380  475.205
  19.400  866.892
  19.420  876.614
  19.440  818.616
  19.460 1005.833
  19.480  529.526
  19.500  631.800
  19.520  660.760
  19.540  684.610
  19.560  833.261
  19.580  831.695
  19.600  854.776
  19.620  788.585
  19.640  970.211
  19.660 1115.094
  19.680  853.935
  19.700 1176.593
  19.720  971.429
  19.740 1446.753
  19.760 1557.946
  19.780 1379.641
  19.800 1744.239
  19.820 1465.441
  19.840 1659.993
  19.860 1703.311
  19.880 1821.312
  19.900 1987.899
  19.920 1987.193
  19.940 2572.859
  19.960 2596.048
  19.980 2495.920
  20.000 2445.630
  20.020 2456.103
  20.040 2692.197
  20.060 2361.387
  20.080 2584.415
  20.100 2538.994
  20.120 2044.165
  20.140 1732.625
  20.160 1802.206
  20.180 1494.697
  20.200 1324.434
  20.220 1620.755
  20.240 1273.065
  20.260 1268.560
  20.280 1408.220
  20.300 1211.026
  20.320 1250.274
  20.340 1170.443
  20.360  885.230
  20.380 1140.643
  20.400 1113.952
  20.420  965.047
  20.440  915.916
  20.460 1019.644
  20.480 1024.993
  20.500  861.957
  20.520 1189.567
  20.540 1013.368
  20.560 1080.117
  20.580 1006.909
  20.600 1151.865
  20.620  895.888
  20.640 1197.043
  20.660 1274.119
  20.680 1248.572
  20.700 1372.147
  20.720 1024.319
  20.740  955.010
  20.760 1071.284
  20.780 1196.504
  20.800 1171.431
  20.820 1439.434
  20.840 1220.530
  20.860 1321.297
  20.880 1028.719
  20.900 1220.682
  20.920 1220.696
  20.940 1192.801
  20.960 1225.523
  20.980  807.693
  21.000 1029.070
  21.020  758.193
  21.040  823.473
  21.060  631.070
  21.080  996.225
  21.100  581.024
  21.120  964.249
  21.140  564.428
  21.160  982.536
  21.180  679.692
  21.200  991.051
  21.220  619.635
  21.240  616.146
  21.260 1025.138
  21.280  653.919
  21.300 1000.350
  21.320 1005.566
  21.340  936.390
  21.360  686.190
  21.380  965.985
  21.400  761.851
  21.420 1016.007
  21.440 1049.766
  21.460  801.701
  21.480 1046.043
  21.500  811.271
  21.520  949.143
  21.540 1081.224
  21.560 1187.570
  21.580 1072.293
  21.600  984.817
  21.620 1176.426
  21.640 1089.411
  21.660  843.339
  21.680 1162.838
  21.700 1184.978
  21.720  965.082
  21.740  842.029
  21.760 1046.232
  21.780 1342.412
  21.800 1168.875
  21.820  896.246
  21.840  985.398
  21.860 1224.252
  21.880  831.185
  21.900  976.895
  21.920  943.325
  21.940  860.452
  21.960  984.278
  21.980  653.275
  22.000  956.647
  22.020  693.497
  22.040 1061.078
  22.060  980.198
  22.080  663.622
  22.100  724.673
  22.120  815.066
  22.140  676.276
  22.160 1023.583
  22.180  546.608
  22.200  656.051
  22.220  914.126
  22.240  851.725
  22.260  989.562
  22.280  780.182
  22.300  741.268
  22.320  623.402
  22.340 1049.713
  22.360  878.878
  22.380  795.085
  22.400  788.359
  22.420 1038.190
  22.440 1097.685
  22.460 1007.034
  22.480 1051.953
  22.500  945.748
  22.520  808.507
  22.540  893.984
  22.560 1013.182
  22.580  943.568
  22.600 1020.328
  22.620  695.428
  22.640 1073.349
  22.660  866.245
  22.680  967.841
  22.700  951.408
  22.720  696.565
  22.740 1241.371
  22.760  753.298
  22.780  862.407
  22.800 1024.495
  22.820 1289.151
  22.840  979.507
  22.860 1066.406
  22.880 1098.463
  22.900 1205.060
  22.920 1482.829
  22.940 1524.897
  22.960 1571.392
  22.980 1582.225
  23.000 1291.190
  23.020 1554.261
  23.040 1483.732
  23.060 1755.290
  23.080 1582.841
  23.100 1720.244
  23.120 1513.221
  23.140 1334.294
  23.160 1358.613
  23.180 1351.201
  23.200 1455.222
  23.220 1205.996
  23.240 1335.520
  23.260 1046.619
  23.280  858.544
  23.300  828.584
  23.320  926.199
  23.340  688.757
  23.360 1091.659
  23.380 1074.685
  23.400 1071.321
  23.420  842.732
  23.440  987.730
  23.460  848.215
  23.480 1040.149
  23.500  672.892
  23.520  868.458
  23.540 1119.292
  23.560 1047.661
  23.580  755.318
  23.600 1026.447
  23.620  748.625
  23.640  967.285
  23.660  783.330
  23.680  962.238
  23.700  886.075
  23.720  991.347
  23.740 1010.547
  23.760 1309.508
  23.780 1124.722
  23.800 1070.627
  23.820 1050.856
  23.840 1108.420
  23.860 1226.357
  23.880 1208.103
  23.900 1517.631
  23.920 1697.242
  23.940 1603.107
  23.960 1382.372
  23.980 1783.714
  24.000 1478.875
  24.020 1762.978
  24.040 1658.868
  24.060 1451.549
  24.080 1486.591
  24.100 1208.223
  24.120 1456.868
  24.140 1222.258
  24.160 1584.908
  24.180 1126.794
  24.200 1373.325
  24.220 1151.147
  24.240 1033.562
  24.260  961.698
  24.280 1423.892
  24.300 1347.914
  24.320 1212.592
  24.340 1006.475
  24.360  770.824
  24.380  811.530
  24.400  744.231
  24.420  779.550
  24.440  745.810
  24.460 1042.918
  24.480  870.140
  24.500  741.332
  24.520 1030.949
  24.540  646.857
  24.560  592.706
  24.580  726.977
  24.600  760.659
  24.620  833.458
  24.640  799.975
  24.660  821.226
  24.680  853.540
  24.700  594.038
  24.720  710.755
  24.740 1107.916
  24.760  906.710
  24.780  580.924
  24.800  604.579
  24.820 1090.142
  24.840  892.443
  24.860 1067.534
  24.880 1013.961
  24.900  929.476
  24.920  949.392
  24.940  741.567
  24.960  727.299
  24.980  842.812
  25.000  778.521
  25.020 1002.397
  25.040  715.708
  25.060 1047.010
  25.080 1056.155
  25.100  801.714
  25.120  958.981
  25.140  927.655
  25.160 1044.218
  25.180 1279.214
  25.200  917.418
  25.220  914.039
  25.240 1300.658
  25.260 1257.587
  25.280 1045.512
  25.300 1339.326
  25.320 1075.651
  25.340  964.743
  25.360  977.311
  25.380 1129.101
  25.400 1403.921
  25.420 1387.628
  25.440 1478.184
  25.460 1353.219
  25.480 1434.739
  25.500 1258.911
  25.520 1460.283
  25.540 1425.393
  25.560 1713.666
  25.580 1486.728
  25.600 1824.356
  25.620 1945.896
  25.640 1430.750
  25.660 1505.294
  25.680 1950.245
  25.700 1668.092
  25.720 1551.047
  25.740 1556.390
  25.760 1539.258
  25.780 1545.431
  25.800 1229.708
  25.820 1132.604
  25.840 1117.659
  25.860 1355.926
  25.880 1247.124
  25.900  851.799
  25.920  985.762
  25.940  816.681
  25.960 1128.703
  25.980  764.413
  26.000  775.966
  26.020  959.988
  26.040 1064.523
  26.060  705.567
  26.080  750.155
  26.100  805.884
  26.120  635.754
  26.140  822.538
  26.160 1111.948
  26.180  810.238
  26.200  910.120
  26.220  723.747
  26.240  964.225
  26.260  706.294
  26.280  956.141
  26.300  938.409
  26.320  798.159
  26.340  885.108
  26.360 1016.757
  26.380  725.574
  26.400 1019.090
  26.420 1215.959
  26.440 1221.831
  26.460 1289.480
  26.480  914.548
  26.500  924.547
  26.520  974.091
  26.540  988.527
  26.560 1439.028
  26.580 1271.497
  26.600 1604.570
  26.620 1333.014
  26.640 1703.534
  26.660 1345.485
  26.680 1909.965
  26.700 1805.549
  26.720 1674.745
  26.740 2057.111
  26.760 2259.687
  26.780 2256.868
  26.800 2288.195
  26.820 2484.501
  26.840 2495.591
  26.860 2226.003
  26.880 2234.172
  26.900 2526.494
  26.920 2496.945
  26.940 2332.204
  26.960 1964.184
  26.980 1951.947
  27.000 1803.374
  27.020 2032.885
  27.040 1717.938
  27.060 1412.032
  27.080 1445.013
  27.100 1434.704
  27.120 1153.998
  27.140 1188.725
  27.160 1282.226
  27.180 1045.562
  27.200 1315.696
  27.220 1307.233
  27.240  831.361
  27.260 1164.788
  27.280 1085.844
  27.300  943.828
  27.320 1217.307
  27.340  769.143
  27.360 1139.328
  27.380  875.642
  27.400 1072.211
  27.420  840.756
  27.440  665.533
  27.460  658.783
  27.480  778.642
  27.500  773.564
  27.520  737.800
  27.540  926.596
  27.560  829.385
  27.580  797.117
  27.600  713.620
  27.620 1065.192
  27.640 1139.598
  27.660  797.172
  27.680  710.972
  27.700  883.072
  27.720 1029.806
  27.740 1242.917
  27.760 1274.766
  27.780 1236.548
  27.800 1254.365
  27.820 1034.016
  27.840  986.351
  27.860 1539.410
  27.880 1294.536
  27.900 1555.871
  27.920 1576.112
  27.940 1429.937
  27.960 1443.755
  27.980 1470.667
  28.000 1626.722
  28.020 1626.180
  28.040 1620.097
  28.060 1438.349
  28.080 1751.473
  28.100 1509.523
  28.120 1431.472
  28.140 1591.109
  28.160 1098.129
  28.180 1514.850
  28.200 1426.728
  28.220 1247.763
  28.240 1117.504
  28.260 1023.038
  28.280 1066.499
  28.300  817.536
  28.320 1299.036
  28.340  881.456
  28.360 1089.413
  28.380 1025.673
  28.400  827.259
  28.420 1179.043
  28.440  933.081
  28.460  942.644
  28.480  705.811
  28.500 1063.639
  28.520  799.885
  28.540  835.193
  28.560  647.070
  28.580  683.051
  28.600  619.716
  28.620 1068.968
  28.640 1077.232
  28.660  923.282
  28.680 1136.849
  28.700  916.976
  28.720  867.700
  28.740 1067.645
  28.760 1019.759
  28.780 1056.363
  28.800  849.176
  28.820 1069.376
  28.840  691.954
  28.860  838.794
  28.880  975.922
  28.900 1109.647
  28.920  763.510
  28.940  753.735
  28.960  882.705
  28.980  715.147
  29.000  816.757
  29.020  836.233
  29.040  934.481
  29.060 1032.042
  29.080 1069.149
  29.100  937.696
  29.120  785.143
  29.140  639.337
  29.160  957.163
  29.180  536.040
  29.200  639.573
  29.220  637.797
  29.240  867.393
  29.260  927.234
  29.280  693.630
  29.300  837.300
  29.320  607.235
  29.340  508.586
  29.360  638.040
  29.380  698.965
  29.400  971.323
  29.420  743.132
  29.440  865.688
  29.460  659.087
  29.480  776.962
  29.500  795.306
  29.520  969.463
  29.540  834.437
  29.560  811.226
  29.580  615.522
  29.600  597.692
  29.620  946.964
  29.640  835.240
  29.660  642.036
  29.680  758.886
  29.700  724.401
  29.720  981.795
  29.740 1113.671
  29.760  966.033
  29.780  828.581
  29.800 1273.695
  29.820 1170.980
  29.840  952.382
  29.860 1282.936
  29.880 1509.642
  29.900 1239.114
  29.920 1535.403
  29.940 1500.874
  29.960 1555.105
  29.980 1373.087
  30.000 1688.884
  30.020 1526.035
  30.040 1348.548
  30.060 1660.790
  30.080 1471.220
  30.100 1613.727
  30.120 1241.235
  30.140 1152.102
  30.160 1178.377
  30.180 1289.645
  30.200 1370.004
  30.220 1053.367
  30.240 1079.204
  30.260  946.329
  30.280 1001.328
  30.300  773.287
  30.320 1035.170
  30.340  931.975
  30.360  957.290
  30.380  564.041
  30.400  831.203
  30.420  937.411
  30.440  924.982
  30.460  711.815
  30.480  996.589
  30.500  515.163
  30.520  849.685
  30.540  676.798
  30.560  694.493
  30.580  719.731
  30.600  922.758
  30.620  486.367
  30.640  936.102
  30.660  874.541
  30.680  640.757
  30.700  601.104
  30.720  458.866
  30.740  485.413
  30.760  536.511
  30.780  859.267
  30.800  494.879
  30.820  699.795
  30.840  869.433
  30.860  569.982
  30.880  514.731
  30.900  572.583
  30.920  997.189
  30.940 1044.452
  30.960  920.519
  30.980  565.786
  31.000  737.554
  31.020 1058.432
  31.040  728.476
  31.060  794.566
  31.080  955.530
  31.100 1067.873
  31.120 1132.344
  31.140 1259.366
  31.160 1134.590
  31.180 1025.524
  31.200 1228.475
  31.220 1064.987
  31.240 1202.882
  31.260 1150.302
  31.280 1248.930
  31.300 1235.233
  31.320 1435.544
  31.340 1387.022
  31.360 1471.879
  31.380 1338.007
  31.400 1620.881
  31.420 1552.489
  31.440 1528.900
  31.460 1547.559
  31.480 1404.411
  31.500 1316.162
  31.520 1258.571
  31.540 1222.316
  31.560 1607.570
  31.580 1289.694
  31.600 1477.444
  31.620 1684.546
  31.640 1562.730
  31.660 1443.621
  31.680 1400.486
  31.700 1283.289
  31.720 1588.034
  31.740 1442.080
  31.760 1312.383
  31.780 1364.758
  31.800 1101.384
  31.820 1558.033
  31.840 1528.312
  31.860 1084.685
  31.880 1349.485
  31.900 1035.655
  31.920  918.708
  31.940 1368.728
  31.960  882.735
  31.980 1157.610
  32.000  879.184
  32.020 1184.344
  32.040 1158.414
  32.060  813.946
  32.080  925.129
  32.100 1166.847
  32.120 1150.775
  32.140  894.909
  32.160 1318.764
  32.180 1293.641
  32.200 1160.570
  32.220  980.910
  32.240 1122.629
  32.260 1175.258
  32.280 1160.719
  32.300 1188.006
  32.320 1074.171
  32.340 1111.075
  32.360  994.442
  32.380 1002.875
  32.400  632.126
  32.420 1019.865
  32.440  879.165
  32.460 1057.759
  32.480  773.143
  32.500  891.653
  32.520  752.067
  32.540  528.982
  32.560  703.310
  32.580  717.134
  32.600  965.732
  32.620  804.678
  32.640  867.085
  32.660  938.266
  32.680  557.652
  32.700  952.020
  32.720  752.442
  32.740  674.768
  32.760  565.504
  32.780  858.344
  32.800  632.121
  32.820  926.782
  32.840  845.301
  32.860  616.599
  32.880  773.236
  32.900  818.092
  32.920  840.776
  32.940  884.438
  32.960  546.391
  32.980  657.860
  33.000  658.440
  33.020  623.218
  33.040  936.054
  33.060  663.391
  33.080  664.750
  33.100  515.704
  33.120  673.126
  33.140  860.749
  33.160  647.352
  33.180  422.051
  33.200  557.268
  33.220  742.503
  33.240  569.058
  33.260  678.807
  33.280  876.164
  33.300  700.476
  33.320  517.247
  33.340  830.951
  33.360  368.500
  33.380  549.570
  33.400  708.117
  33.420  847.508
  33.440  621.999
  33.460  680.439
  33.480  485.485
  33.500  479.475
  33.520  835.745
  33.540  537.345
  33.560  479.006
  33.580  764.456
  33.600  454.792
  33.620  526.774
  33.640  512.172
  33.660  518.055
  33.680  723.202
  33.700  822.919
  33.720  668.003
  33.740  781.276
  33.760  694.758
  33.780  583.421
  33.800  798.688
  33.820  849.552
  33.840  505.800
  33.860  804.007
  33.880  765.086
  33.900  824.964
  33.920  560.663
  33.940  884.907
  33.960  564.852
  33.980  929.990
  34.000  889.650
  34.020  451.795
  34.040  669.880
  34.060  541.941
  34.080  973.500
  34.100  568.584
  34.120  875.871
  34.140 1004.485
  34.160  612.471
  34.180  961.350
  34.200  710.544
  34.220  577.675
  34.240  773.957
  34.260  547.423
  34.280  845.565
  34.300  573.325
  34.320  827.699
  34.340  911.214
  34.360  792.106
  34.380  790.591
  34.400  743.308
  34.420 1030.570
  34.440 1029.107
  34.460  801.532
  34.480 1014.955
  34.500 1055.784
  34.520 1130.095
  34.540 1186.752
  34.560  922.215
  34.580 1056.766
  34.600 1316.330
  34.620 1086.822
  34.640 1223.087
  34.660 1271.716
  34.680 1400.042
  34.700 1289.346
  34.720 1682.471
  34.740 1382.452
  34.760 1391.002
  34.780 1656.606
  34.800 1494.435
  34.820 1833.635
  34.840 1728.033
  34.860 1882.646
  34.880 1911.428
  34.900 1643.877
  34.920 1964.793
  34.940 1795.270
  34.960 2112.844
  34.980 1785.651
  35.000 2127.358
  35.020 2109.498
  35.040 2479.386
  35.060 2431.245
  35.080 2600.923
  35.100 2672.297
  35.120 2857.233
  35.140 2939.743
  35.160 3024.680
  35.180 2925.297
  35.200 2559.932
  35.220 2636.495
  35.240 2410.965
  35.260 2522.364
  35.280 2105.745
  35.300 2221.482
  35.320 1805.404
  35.340 1684.349
  35.360 1577.667
  35.380 1315.049
  35.400 1251.727
  35.420 1210.497
  35.440 1090.545
  35.460  884.967
  35.480 1272.485
  35.500 1192.344
  35.520 1125.193
  35.540 1169.398
  35.560  992.767
  35.580  944.993
  35.600  680.703
  35.620  895.481
  35.640  974.482
  35.660  935.672
  35.680  546.434
  35.700  884.719
  35.720 1010.154
  35.740  600.733
  35.760  728.601
  35.780 1048.751
  35.800  996.693
  35.820  758.441
  35.840  909.424
  35.860  965.928
  35.880  722.195
  35.900  666.459
  35.920  696.361
  35.940  701.580
  35.960 1049.108
  35.980  961.150
  36.000  950.267
  36.020  694.960
  36.040  888.778
  36.060 1083.892
  36.080  736.706
  36.100  670.645
  36.120  697.841
  36.140  835.753
  36.160  746.959
  36.180  905.637
  36.200 1113.635
  36.220  642.755
  36.240  654.079
  36.260  836.154
  36.280  751.442
  36.300  624.065
  36.320  776.700
  36.340  781.389
  36.360 1061.417
  36.380  710.243
  36.400 1123.083
  36.420  904.072
  36.440  681.553
  36.460 1136.903
  36.480 1202.618
  36.500 1168.843
  36.520 1094.527
  36.540  784.888
  36.560 1020.352
  36.580 1020.979
  36.600  862.304
  36.620 1025.660
  36.640  844.759
  36.660 1142.774
  36.680  908.174
  36.700 1184.051
  36.720 1074.058
  36.740  914.889
  36.760  802.739
  36.780 1172.020
  36.800 1216.312
  36.820  913.162
  36.840  821.569
  36.860 1081.442
  36.880  946.882
  36.900  954.791
  36.920  736.603
  36.940  959.223
  36.960 1179.481
  36.980 1104.901
  37.000  753.272
  37.020 1114.148
  37.040  661.985
  37.060  999.507
  37.080  971.966
  37.100 1026.315
  37.120  899.976
  37.140  582.172
  37.160  571.679
  37.180 1010.739
  37.200  739.504
  37.220  864.084
  37.240  681.093
  37.260  583.838
  37.280  844.838
  37.300  512.338
  37.320  674.843
  37.340  924.797
  37.360  702.203
  37.380  731.897
  37.400  758.098
  37.420  624.525
  37.440  839.541
  37.460  721.735
  37.480  685.186
  37.500  828.508
  37.520  995.379
  37.540 1024.226
  37.560 1053.932
  37.580  792.794
  37.600 1080.880
  37.620  889.355
  37.640 1039.543
  37.660 1091.625
  37.680 1177.811
  37.700 1254.142
  37.720 1159.107
  37.740  943.013
  37.760 1033.970
  37.780  884.727
  37.800 1096.027
  37.820 1300.906
  37.840 1100.761
  37.860 1197.579
  37.880 1213.040
  37.900 1371.503
  37.920  965.268
  37.940 1103.039
  37.960 1038.686
  37.980 1192.557
  38.000 1081.566
  38.020 1355.418
  38.040  969.759
  38.060  840.796
  38.080 1131.383
  38.100  887.650
  38.120  764.005
  38.140 1207.497
  38.160  966.326
  38.180  842.838
  38.200  986.316
  38.220 1122.770
  38.240 1027.489
  38.260  936.953
  38.280 1064.792
  38.300  914.902
  38.320  885.641
  38.340  946.126
  38.360  544.923
  38.380  645.138
  38.400  735.109
  38.420  774.823
  38.440  548.611
  38.460  544.527
  38.480  691.028
  38.500  689.993
  38.520  923.937
  38.540  907.857
  38.560  853.379
  38.580  483.814
  38.600  576.803
  38.620  731.411
  38.640  430.859
  38.660  521.803
  38.680  586.358
  38.700  646.957
  38.720  533.646
  38.740  840.763
  38.760  517.549
  38.780  648.893
  38.800  543.550
  38.820  879.379
  38.840  858.989
  38.860  375.798
  38.880  534.489
  38.900  676.915
  38.920  786.301
  38.940  581.073
  38.960  755.807
  38.980  568.012
  39.000  474.037
  39.020  871.471
  39.040  578.934
  39.060  627.327
  39.080  837.678
  39.100  589.691
  39.120  675.524
  39.140  440.759
  39.160  608.587
  39.180  718.184
  39.200  713.551
  39.220  428.771
  39.240  573.770
  39.260  469.854
  39.280  619.350
  39.300  553.759
  39.320  889.796
  39.340  639.231
  39.360  863.514
  39.380  521.339
  39.400  869.119
  39.420  838.679
  39.440  482.283
  39.460  466.691
  39.480  587.051
  39.500  670.518
  39.520  663.634
  39.540  666.348
  39.560  805.009
  39.580  758.797
  39.600  372.719
  39.620  649.779
  39.640  687.440
  39.660  726.568
  39.680  834.102
  39.700  378.172
  39.720  769.899
  39.740  689.855
  39.760  515.541
  39.780  771.267
  39.800  650.245
  39.820  455.051
  39.840  595.456
  39.860  477.090
  39.880  708.272
  39.900  796.456
  39.920  858.989
  39.940  690.916
  39.960  483.749
  39.980  853.650
  40.000  751.586
  40.020  703.540
  40.040  731.473
  40.060  546.415
  40.080  499.910
  40.100  904.466
  40.120  543.126
  40.140  529.727
  40.160  787.507
  40.180  673.523
  40.200 1003.802
  40.220  916.279
  40.240  858.913
  40.260  595.460
  40.280  850.456
  40.300  663.344
  40.320  783.806
  40.340  633.262
  40.360  634.545
  40.380  633.758
  40.400  663.085
  40.420  604.086
  40.440  730.777
  40.460 1048.966
  40.480  583.241
  40.500  956.620
  40.520  745.462
  40.540  564.484
  40.560  978.930
  40.580  524.812
  40.600  744.224
  40.620  530.323
  40.640  672.316
  40.660  608.413
  40.680  815.887
  40.700  794.830
  40.720  764.729
  40.740  987.859
  40.760  547.908
  40.780  869.120
  40.800  577.692
  40.820  947.748
  40.840  958.690
  40.860  975.232
  40.880  616.528
  40.900  627.402
  40.920  863.669
  40.940 1116.405
  40.960  707.131
  40.980  709.844
  41.000  931.233
  41.020 1040.197
  41.040  798.820
  41.060  947.860
  41.080  813.389
  41.100  732.952
  41.120 1077.566
  41.140  645.092
  41.160  713.610
  41.180  639.027
  41.200  631.137
  41.220  609.449
  41.240  683.083
  41.260  657.813
  41.280  601.314
  41.300  745.275
  41.320  894.150
  41.340  993.442
  41.360  596.453
  41.380  689.301
  41.400  585.078
  41.420  795.390
  41.440  868.285
  41.460  844.708
  41.480  910.273
  41.500  681.400
  41.520  822.729
  41.540  693.441
  41.560  634.345
  41.580  894.598
  41.600  595.097
  41.620  835.023
  41.640  621.506
  41.660  703.358
  41.680  932.408
  41.700  519.571
  41.720  581.668
  41.740  883.170
  41.760  666.169
  41.780  411.606
  41.800  885.907
  41.820  508.607
  41.840  723.179
  41.860  682.574
  41.880  739.180
  41.900  668.384
  41.920  468.208
  41.940  960.808
  41.960  453.512
  41.980  782.663
  42.000  932.176
  42.020  643.411
  42.040  769.223
  42.060  861.844
  42.080  565.693
  42.100  906.537
  42.120  668.407
  42.140 1129.289
  42.160  913.910
  42.180 1032.503
  42.200  912.887
  42.220  937.912
  42.240  674.802
  42.260  912.101
  42.280 1170.295
  42.300 1024.418
  42.320 1026.503
  42.340  890.272
  42.360  843.945
  42.380 1027.253
  42.400  753.422
  42.420 1102.032
  42.440  766.361
  42.460  806.800
  42.480 1161.568
  42.500  941.059
  42.520  799.565
  42.540 1008.462
  42.560 1119.127
  42.580  903.471
  42.600 1201.570
  42.620  802.266
  42.640 1039.911
  42.660  810.672
  42.680 1104.730
  42.700  835.913
  42.720  660.844
  42.740  822.413
  42.760  807.081
  42.780  955.782
  42.800  838.012
  42.820  637.584
  42.840  634.050
  42.860  673.982
  42.880  547.495
  42.900  916.929
  42.920  544.615
  42.940  461.716
  42.960  619.391
  42.980  714.481
  43.000  542.238
  43.020  445.256
  43.040  591.490
  43.060  616.126
  43.080  450.660
  43.100  566.138
  43.120  504.214
  43.140  392.293
  43.160  539.432
  43.180  668.949
  43.200  636.615
  43.220  632.984
  43.240  464.658
  43.260  663.886
  43.280  782.096
  43.300  756.092
  43.320  716.600
  43.340  608.994
  43.360  535.823
  43.380  744.332
  43.400  504.146
  43.420  666.297
  43.440  565.569
  43.460  336.735
  43.480  488.493
  43.500  568.634
  43.520  360.325
  43.540  408.279
  43.560  587.451
  43.580  412.901
  43.600  326.976
  43.620  797.973
  43.640  747.581
  43.660  365.722
  43.680  721.274
  43.700  792.779
  43.720  328.931
  43.740  395.507
  43.760  717.427
  43.780  568.654
  43.800  701.560
  43.820  501.399
  43.840  661.368
  43.860  839.455
  43.880  382.016
  43.900  689.199
  43.920  612.599
  43.940  622.401
  43.960  765.088
  43.980  365.981
  44.000  505.750
