Sample	
Comments	
Filename	C:\WINDMAX\DATA\USERS\GEO\GEO_ER~1\Pyrenees\BULKMA~1\2M1-std2.raw
Goniometer	Ultima IV In-plane
Attachment	Auto sample changer (10 samples)
ScanningMode	2Theta/Theta
ScanningType	Continuos Scanning
X-Ray	40kV/44mA
DivSlit	2/3deg.
DivH.L.Slit	10mm
SctSlit	2/3deg.
RecSlit	0.3mm
Start	16
Stop	44
Step	0.02
Speed	0.3
Offset	0
  16.000  452.166
  16.020  770.487
  16.040  777.080
  16.060  876.022
  16.080  446.391
  16.100  579.686
  16.120  870.496
  16.140  491.235
  16.160  785.000
  16.180  957.032
  16.200  784.152
  16.220  444.485
  16.240  513.341
  16.260  799.132
  16.280  792.759
  16.300  742.655
  16.320  899.967
  16.340  384.708
  16.360  528.183
  16.380  559.914
  16.400  808.615
  16.420  781.718
  16.440  746.675
  16.460  457.226
  16.480  624.126
  16.500  763.993
  16.520  828.759
  16.540  655.192
  16.560  587.710
  16.580  694.800
  16.600  611.926
  16.620  580.226
  16.640  524.838
  16.660  505.432
  16.680  611.514
  16.700  766.605
  16.720  664.114
  16.740  610.090
  16.760  637.431
  16.780  812.451
  16.800  593.662
  16.820  389.317
  16.840  677.833
  16.860  699.607
  16.880  499.403
  16.900  884.124
  16.920  722.860
  16.940  557.157
  16.960  778.968
  16.980  381.742
  17.000  750.072
  17.020  877.342
  17.040  664.604
  17.060  581.577
  17.080  499.460
  17.100  711.411
  17.120  681.817
  17.140  465.286
  17.160  393.551
  17.180  550.816
  17.200  427.378
  17.220  487.194
  17.240  518.926
  17.260  800.106
  17.280  896.841
  17.300  628.503
  17.320  553.391
  17.340  919.655
  17.360  452.639
  17.380  856.178
  17.400  751.508
  17.420  726.130
  17.440  485.043
  17.460  577.308
  17.480  467.925
  17.500  901.473
  17.520  889.955
  17.540  483.048
  17.560  494.900
  17.580  897.207
  17.600  713.217
  17.620  957.640
  17.640  985.331
  17.660  701.505
  17.680  897.269
  17.700 1040.715
  17.720  975.223
  17.740  750.217
  17.760  836.227
  17.780 1247.983
  17.800 1308.660
  17.820  914.773
  17.840 1243.065
  17.860 1090.898
  17.880 1298.873
  17.900 1345.776
  17.920 1483.767
  17.940 1098.198
  17.960 1564.175
  17.980 1250.041
  18.000 1275.247
  18.020 1387.145
  18.040 1055.059
  18.060 1462.500
  18.080 1393.803
  18.100 1307.603
  18.120 1341.983
  18.140 1190.843
  18.160  973.237
  18.180 1031.116
  18.200  824.800
  18.220 1169.297
  18.240  669.285
  18.260  736.598
  18.280  595.816
  18.300  562.374
  18.320  655.993
  18.340  662.246
  18.360  944.808
  18.380  544.040
  18.400  984.496
  18.420  697.142
  18.440  962.252
  18.460  795.048
  18.480  507.826
  18.500  904.601
  18.520  940.501
  18.540  630.206
  18.560  699.958
  18.580  721.036
  18.600  975.106
  18.620  708.491
  18.640  495.885
  18.660  697.678
  18.680  540.162
  18.700  789.194
  18.720  877.968
  18.740  496.126
  18.760  571.656
  18.780  522.633
  18.800  653.342
  18.820  732.158
  18.840  713.421
  18.860  961.777
  18.880  764.996
  18.900  841.413
  18.920  604.875
  18.940  498.260
  18.960  905.304
  18.980  553.472
  19.000  435.250
  19.020  532.413
  19.040  837.513
  19.060  960.480
  19.080  492.446
  19.100  479.127
  19.120  624.412
  19.140  786.076
  19.160  829.946
  19.180  837.118
  19.200  622.865
  19.220  524.013
  19.240  516.741
  19.260  694.648
  19.280  854.104
  19.300  819.266
  19.320  879.829
  19.340  948.363
  19.360  906.695
  19.380  624.176
  19.400  997.352
  19.420  558.163
  19.440  590.183
  19.460  568.568
  19.480 1014.133
  19.500  672.475
  19.520  862.313
  19.540 1008.063
  19.560  662.250
  19.580 1122.273
  19.600  989.593
  19.620  973.733
  19.640 1158.205
  19.660 1295.588
  19.680 1164.905
  19.700  940.596
  19.720  917.035
  19.740 1351.860
  19.760 1544.660
  19.780 1331.104
  19.800 1695.271
  19.820 1643.641
  19.840 1922.906
  19.860 1906.766
  19.880 2260.963
  19.900 2263.702
  19.920 2229.562
  19.940 2197.187
  19.960 2676.797
  19.980 2758.560
  20.000 2647.938
  20.020 2811.295
  20.040 2573.515
  20.060 2313.354
  20.080 2539.408
  20.100 2305.855
  20.120 2113.904
  20.140 2168.097
  20.160 2083.084
  20.180 1766.341
  20.200 1293.098
  20.220 1296.500
  20.240 1192.226
  20.260  994.510
  20.280 1439.206
  20.300 1327.942
  20.320  966.093
  20.340  848.260
  20.360  969.598
  20.380  956.313
  20.400  923.591
  20.420 1055.142
  20.440 1116.854
  20.460  797.649
  20.480  858.012
  20.500 1120.166
  20.520 1195.925
  20.540  983.366
  20.560  947.096
  20.580 1198.654
  20.600 1121.744
  20.620  821.153
  20.640 1012.939
  20.660  829.509
  20.680 1223.267
  20.700 1379.582
  20.720 1302.514
  20.740  986.768
  20.760 1305.840
  20.780 1320.008
  20.800 1011.090
  20.820 1359.586
  20.840 1093.931
  20.860 1147.105
  20.880  904.907
  20.900 1255.987
  20.920  916.924
  20.940  935.369
  20.960  771.345
  20.980 1074.845
  21.000  895.645
  21.020  778.947
  21.040  751.104
  21.060  891.753
  21.080  891.865
  21.100  672.714
  21.120  961.708
  21.140 1011.515
  21.160  682.480
  21.180  590.872
  21.200  861.338
  21.220  612.187
  21.240  589.874
  21.260  973.946
  21.280  956.172
  21.300  954.896
  21.320  655.580
  21.340  806.169
  21.360  801.168
  21.380  847.472
  21.400  784.487
  21.420  761.469
  21.440  967.784
  21.460 1029.661
  21.480 1024.027
  21.500  810.423
  21.520 1088.140
  21.540  837.949
  21.560 1222.903
  21.580 1168.489
  21.600  830.089
  21.620 1233.658
  21.640 1092.670
  21.660 1026.556
  21.680  963.415
  21.700  970.035
  21.720  990.234
  21.740 1164.209
  21.760 1114.882
  21.780 1032.087
  21.800 1162.705
  21.820 1138.930
  21.840 1021.451
  21.860 1085.764
  21.880  906.951
  21.900  755.010
  21.920 1147.883
  21.940  632.337
  21.960  751.475
  21.980  606.607
  22.000  694.924
  22.020  756.838
  22.040  648.931
  22.060  682.931
  22.080  911.916
  22.100 1033.261
  22.120  754.673
  22.140  889.158
  22.160  774.815
  22.180 1016.773
  22.200  684.464
  22.220  980.816
  22.240  813.080
  22.260  984.767
  22.280  826.328
  22.300  868.376
  22.320  590.078
  22.340  777.039
  22.360  998.718
  22.380  782.532
  22.400  719.345
  22.420  856.165
  22.440  658.267
  22.460 1033.860
  22.480  872.563
  22.500  958.592
  22.520 1068.385
  22.540  810.883
  22.560  896.389
  22.580 1011.933
  22.600  796.295
  22.620  743.536
  22.640 1014.054
  22.660  977.568
  22.680 1047.849
  22.700  775.459
  22.720 1059.023
  22.740  761.018
  22.760  972.372
  22.780  866.442
  22.800 1026.478
  22.820 1275.091
  22.840 1297.571
  22.860 1273.643
  22.880  975.016
  22.900 1443.044
  22.920 1103.282
  22.940 1530.628
  22.960 1191.348
  22.980 1478.392
  23.000 1742.812
  23.020 1391.134
  23.040 1500.053
  23.060 1628.921
  23.080 1452.381
  23.100 1606.613
  23.120 1711.278
  23.140 1470.670
  23.160 1593.874
  23.180 1583.706
  23.200 1225.492
  23.220 1493.548
  23.240 1384.719
  23.260  861.716
  23.280  981.139
  23.300 1261.187
  23.320 1232.929
  23.340 1120.437
  23.360 1005.562
  23.380  869.977
  23.400  880.474
  23.420  899.182
  23.440  820.327
  23.460 1102.490
  23.480 1067.058
  23.500 1003.006
  23.520  835.790
  23.540  653.065
  23.560  694.423
  23.580 1058.442
  23.600 1034.809
  23.620  834.826
  23.640  859.602
  23.660 1150.224
  23.680 1225.807
  23.700 1249.382
  23.720  969.887
  23.740 1060.851
  23.760 1078.613
  23.780 1017.259
  23.800 1128.755
  23.820 1126.474
  23.840 1144.308
  23.860 1413.895
  23.880 1501.763
  23.900 1571.174
  23.920 1670.623
  23.940 1278.950
  23.960 1767.171
  23.980 1648.217
  24.000 1682.048
  24.020 1718.663
  24.040 1342.045
  24.060 1509.028
  24.080 1419.948
  24.100 1425.832
  24.120 1474.979
  24.140 1502.842
  24.160 1252.069
  24.180 1382.866
  24.200 1219.113
  24.220 1209.369
  24.240 1221.831
  24.260 1000.169
  24.280 1349.928
  24.300  977.819
  24.320 1273.655
  24.340  842.987
  24.360 1100.528
  24.380  945.163
  24.400  960.519
  24.420 1162.889
  24.440  950.410
  24.460  759.996
  24.480 1041.010
  24.500  978.016
  24.520  953.832
  24.540 1074.186
  24.560  800.166
  24.580  728.614
  24.600  708.819
  24.620  672.968
  24.640  542.510
  24.660  779.033
  24.680 1034.157
  24.700  591.369
  24.720  933.961
  24.740  944.552
  24.760  744.004
  24.780  686.981
  24.800  959.543
  24.820  695.389
  24.840 1103.711
  24.860  928.500
  24.880  935.081
  24.900  881.614
  24.920 1089.449
  24.940  974.333
  24.960 1034.188
  24.980  893.107
  25.000  771.122
  25.020  911.441
  25.040 1108.657
  25.060 1201.730
  25.080 1185.414
  25.100 1167.982
  25.120  889.911
  25.140 1002.500
  25.160 1003.723
  25.180 1197.935
  25.200 1089.468
  25.220 1250.872
  25.240 1027.689
  25.260 1024.486
  25.280 1344.690
  25.300 1311.227
  25.320 1027.264
  25.340 1394.813
  25.360 1234.931
  25.380 1180.903
  25.400 1340.369
  25.420 1288.207
  25.440 1331.567
  25.460 1078.521
  25.480 1226.389
  25.500 1197.636
  25.520 1618.768
  25.540 1555.772
  25.560 1721.634
  25.580 1830.770
  25.600 1806.362
  25.620 1576.394
  25.640 1911.939
  25.660 1605.558
  25.680 1643.446
  25.700 1562.946
  25.720 1666.345
  25.740 1619.658
  25.760 1346.015
  25.780 1103.344
  25.800 1361.510
  25.820 1321.500
  25.840 1392.180
  25.860 1338.517
  25.880 1199.358
  25.900 1246.951
  25.920 1233.849
  25.940  945.073
  25.960  819.703
  25.980 1097.590
  26.000 1017.326
  26.020  931.989
  26.040 1075.386
  26.060  708.055
  26.080 1010.604
  26.100  691.959
  26.120  750.617
  26.140  836.459
  26.160  961.067
  26.180 1005.233
  26.200 1090.861
  26.220  778.128
  26.240  662.965
  26.260 1088.785
  26.280  668.760
  26.300 1024.539
  26.320  844.288
  26.340 1011.785
  26.360 1164.743
  26.380  842.472
  26.400  904.369
  26.420 1037.849
  26.440 1074.483
  26.460 1089.173
  26.480 1273.491
  26.500 1232.789
  26.520 1418.341
  26.540 1168.923
  26.560 1423.627
  26.580 1549.034
  26.600 1564.920
  26.620 1360.088
  26.640 1625.360
  26.660 1510.474
  26.680 1551.255
  26.700 1991.755
  26.720 2153.260
  26.740 2312.321
  26.760 2040.460
  26.780 2392.137
  26.800 2280.882
  26.820 2218.762
  26.840 2550.021
  26.860 2455.851
  26.880 2557.263
  26.900 2208.395
  26.920 2263.150
  26.940 2214.475
  26.960 1942.939
  26.980 1941.890
  27.000 1806.880
  27.020 1870.864
  27.040 1508.288
  27.060 1373.893
  27.080 1498.019
  27.100 1528.891
  27.120 1459.743
  27.140 1325.966
  27.160 1221.898
  27.180 1066.338
  27.200 1025.781
  27.220 1017.981
  27.240 1076.999
  27.260 1212.774
  27.280  889.871
  27.300  988.890
  27.320 1001.608
  27.340  795.260
  27.360  819.192
  27.380  686.915
  27.400 1102.291
  27.420  795.204
  27.440  775.218
  27.460  701.754
  27.480  696.454
  27.500  746.023
  27.520  957.524
  27.540 1060.328
  27.560  917.745
  27.580  793.167
  27.600  754.768
  27.620  857.653
  27.640  756.284
  27.660 1043.561
  27.680  921.725
  27.700 1098.789
  27.720 1106.359
  27.740 1324.670
  27.760 1148.033
  27.780  881.043
  27.800  925.177
  27.820 1155.327
  27.840 1241.653
  27.860 1510.471
  27.880 1533.803
  27.900 1543.343
  27.920 1425.453
  27.940 1444.668
  27.960 1532.277
  27.980 1769.232
  28.000 1780.483
  28.020 1621.739
  28.040 1492.174
  28.060 1695.922
  28.080 1387.266
  28.100 1634.938
  28.120 1425.356
  28.140 1531.540
  28.160 1513.333
  28.180 1191.342
  28.200 1192.829
  28.220 1259.105
  28.240 1130.142
  28.260 1205.658
  28.280  879.792
  28.300 1212.155
  28.320 1280.539
  28.340 1201.386
  28.360  789.234
  28.380  761.614
  28.400 1118.562
  28.420 1116.939
  28.440 1159.145
  28.460  697.646
  28.480  813.613
  28.500  888.101
  28.520 1022.634
  28.540  927.036
  28.560  895.447
  28.580  646.353
  28.600  690.831
  28.620  947.042
  28.640  681.227
  28.660  894.572
  28.680 1011.349
  28.700  742.741
  28.720  771.228
  28.740 1028.226
  28.760  671.354
  28.780 1109.557
  28.800 1093.224
  28.820 1012.995
  28.840  700.839
  28.860  816.833
  28.880 1044.209
  28.900  695.237
  28.920  759.306
  28.940  630.990
  28.960  613.120
  28.980  896.304
  29.000  989.465
  29.020  694.346
  29.040 1025.404
  29.060  641.124
  29.080  727.389
  29.100  753.236
  29.120  652.299
  29.140  772.539
  29.160 1005.836
  29.180  987.807
  29.200  599.902
  29.220  585.135
  29.240  878.446
  29.260  594.338
  29.280  607.993
  29.300  601.218
  29.320  584.823
  29.340  901.277
  29.360  528.699
  29.380  566.679
  29.400  522.736
  29.420  816.481
  29.440  547.255
  29.460  540.441
  29.480  875.718
  29.500  992.167
  29.520  588.565
  29.540  953.645
  29.560 1006.744
  29.580  953.135
  29.600  722.666
  29.620  906.955
  29.640  746.224
  29.660  776.472
  29.680 1126.121
  29.700 1023.218
  29.720  984.796
  29.740 1195.342
  29.760 1198.350
  29.780 1008.370
  29.800 1051.561
  29.820 1158.019
  29.840 1207.139
  29.860 1412.171
  29.880 1070.670
  29.900 1356.209
  29.920 1513.756
  29.940 1374.069
  29.960 1706.974
  29.980 1317.349
  30.000 1654.913
  30.020 1536.485
  30.040 1360.916
  30.060 1798.921
  30.080 1384.411
  30.100 1374.655
  30.120 1286.262
  30.140 1196.970
  30.160 1460.108
  30.180 1158.963
  30.200 1049.742
  30.220 1331.176
  30.240 1168.920
  30.260 1216.077
  30.280 1111.623
  30.300  860.316
  30.320  837.982
  30.340  723.446
  30.360  722.273
  30.380  709.090
  30.400  890.290
  30.420  864.670
  30.440  529.020
  30.460 1006.565
  30.480  947.463
  30.500  529.076
  30.520  622.745
  30.540  575.372
  30.560  955.016
  30.580  765.288
  30.600  707.538
  30.620  632.232
  30.640  938.939
  30.660  925.670
  30.680  703.932
  30.700  554.899
  30.720  859.527
  30.740  944.457
  30.760  477.077
  30.780  683.978
  30.800  672.609
  30.820  733.729
  30.840  780.377
  30.860  977.543
  30.880  606.970
  30.900  998.943
  30.920  678.490
  30.940  868.813
  30.960  665.628
  30.980  723.546
  31.000 1055.480
  31.020  585.892
  31.040  834.025
  31.060 1084.321
  31.080 1020.469
  31.100 1129.896
  31.120 1168.039
  31.140  775.665
  31.160  870.192
  31.180 1286.747
  31.200 1388.526
  31.220 1210.806
  31.240 1131.713
  31.260 1085.606
  31.280 1392.541
  31.300 1644.638
  31.320 1553.136
  31.340 1632.281
  31.360 1762.374
  31.380 1669.967
  31.400 1557.842
  31.420 1558.740
  31.440 1483.710
  31.460 1527.690
  31.480 1524.142
  31.500 1398.975
  31.520 1350.443
  31.540 1546.402
  31.560 1390.927
  31.580 1663.278
  31.600 1498.329
  31.620 1561.952
  31.640 1397.782
  31.660 1719.113
  31.680 1293.857
  31.700 1554.792
  31.720 1159.070
  31.740 1645.041
  31.760 1524.448
  31.780 1618.644
  31.800 1584.301
  31.820 1371.163
  31.840 1411.887
  31.860 1203.043
  31.880 1399.297
  31.900 1237.592
  31.920  914.124
  31.940 1210.319
  31.960 1280.311
  31.980 1121.648
  32.000  838.663
  32.020  920.845
  32.040 1105.758
  32.060 1239.061
  32.080 1314.183
  32.100 1274.417
  32.120 1112.495
  32.140 1269.329
  32.160 1006.563
  32.180 1286.862
  32.200 1337.398
  32.220  960.081
  32.240 1126.341
  32.260 1252.777
  32.280 1012.821
  32.300 1027.040
  32.320  903.843
  32.340 1021.930
  32.360  972.752
  32.380 1169.410
  32.400  715.617
  32.420  942.111
  32.440  674.888
  32.460 1065.694
  32.480 1043.711
  32.500  760.600
  32.520  699.420
  32.540  831.582
  32.560  572.285
  32.580  715.775
  32.600  854.812
  32.620  947.517
  32.640  928.785
  32.660  780.360
  32.680  721.802
  32.700  804.228
  32.720  650.624
  32.740  682.693
  32.760  424.280
  32.780  407.749
  32.800  729.630
  32.820  886.380
  32.840  818.898
  32.860  504.657
  32.880  743.032
  32.900  843.058
  32.920  946.309
  32.940 1009.800
  32.960  831.143
  32.980  706.261
  33.000  585.592
  33.020  578.118
  33.040  692.101
  33.060  468.582
  33.080  719.471
  33.100  478.332
  33.120  767.082
  33.140  855.574
  33.160  442.025
  33.180  829.845
  33.200  469.742
  33.220  880.307
  33.240  637.978
  33.260  697.384
  33.280  847.183
  33.300  810.721
  33.320  881.955
  33.340  422.873
  33.360  647.857
  33.380  849.394
  33.400  387.425
  33.420  657.983
  33.440  601.556
  33.460  403.483
  33.480  584.614
  33.500  397.016
  33.520  434.885
  33.540  408.265
  33.560  731.762
  33.580  737.640
  33.600  830.504
  33.620  525.096
  33.640  886.824
  33.660  761.473
  33.680  646.544
  33.700  827.566
  33.720  445.799
  33.740  485.291
  33.760  548.674
  33.780  615.821
  33.800  687.023
  33.820  460.963
  33.840  430.793
  33.860  786.157
  33.880  655.485
  33.900  794.616
  33.920  524.153
  33.940  714.167
  33.960  762.868
  33.980  676.374
  34.000  675.851
  34.020  543.866
  34.040  634.088
  34.060  972.640
  34.080  810.630
  34.100  951.681
  34.120  582.228
  34.140  899.000
  34.160  672.913
  34.180  766.973
  34.200  635.966
  34.220  866.884
  34.240  924.005
  34.260  689.631
  34.280  899.141
  34.300  941.406
  34.320  967.556
  34.340  525.986
  34.360  929.468
  34.380  696.700
  34.400  878.077
  34.420 1038.151
  34.440  605.233
  34.460  795.542
  34.480  855.903
  34.500  816.602
  34.520 1133.089
  34.540  824.365
  34.560  870.970
  34.580  789.790
  34.600 1347.962
  34.620 1433.267
  34.640 1487.500
  34.660 1328.705
  34.680 1616.089
  34.700 1640.016
  34.720 1294.269
  34.740 1625.015
  34.760 1415.987
  34.780 1455.580
  34.800 1467.143
  34.820 1510.998
  34.840 1644.698
  34.860 1908.576
  34.880 1568.467
  34.900 1561.438
  34.920 1566.321
  34.940 1679.840
  34.960 1860.933
  34.980 1977.395
  35.000 1879.160
  35.020 2048.265
  35.040 2218.620
  35.060 2415.871
  35.080 2538.258
  35.100 2784.526
  35.120 2714.953
  35.140 2699.376
  35.160 3035.773
  35.180 2913.827
  35.200 2868.452
  35.220 2665.638
  35.240 2777.619
  35.260 2708.911
  35.280 2286.337
  35.300 2075.468
  35.320 1909.072
  35.340 1747.664
  35.360 1816.428
  35.380 1510.130
  35.400 1619.967
  35.420 1446.212
  35.440 1119.576
  35.460 1145.278
  35.480 1082.311
  35.500 1187.066
  35.520 1192.683
  35.540  933.520
  35.560  755.296
  35.580  973.965
  35.600  757.783
  35.620  943.876
  35.640  978.106
  35.660 1055.878
  35.680  712.252
  35.700  920.230
  35.720 1053.087
  35.740  731.602
  35.760  825.258
  35.780 1025.688
  35.800  894.763
  35.820  679.289
  35.840  764.735
  35.860  859.472
  35.880  728.118
  35.900 1027.683
  35.920  867.281
  35.940  968.944
  35.960  954.383
  35.980  732.715
  36.000  989.026
  36.020 1027.154
  36.040 1090.031
  36.060 1079.614
  36.080  646.491
  36.100  987.416
  36.120 1040.363
  36.140  616.459
  36.160 1056.750
  36.180 1085.848
  36.200 1083.106
  36.220  816.548
  36.240 1017.369
  36.260  630.319
  36.280  641.824
  36.300  781.585
  36.320 1070.211
  36.340  956.525
  36.360  667.145
  36.380 1040.605
  36.400  752.552
  36.420  813.272
  36.440  999.944
  36.460 1059.652
  36.480  721.760
  36.500 1189.626
  36.520 1167.195
  36.540 1171.896
  36.560 1060.575
  36.580  863.980
  36.600  950.085
  36.620 1102.658
  36.640 1127.117
  36.660 1253.743
  36.680 1315.218
  36.700 1253.224
  36.720  907.011
  36.740 1265.197
  36.760 1154.249
  36.780  997.636
  36.800 1160.178
  36.820 1148.762
  36.840  819.051
  36.860  947.783
  36.880 1003.739
  36.900  889.899
  36.920  996.874
  36.940 1183.971
  36.960 1135.475
  36.980  780.376
  37.000 1164.205
  37.020  623.185
  37.040  980.781
  37.060  685.226
  37.080  752.504
  37.100  585.321
  37.120  895.166
  37.140  995.467
  37.160  602.664
  37.180  814.948
  37.200  897.400
  37.220 1039.921
  37.240  754.975
  37.260  556.873
  37.280  870.547
  37.300  892.878
  37.320  891.819
  37.340  997.040
  37.360  656.130
  37.380  822.518
  37.400 1053.289
  37.420  701.777
  37.440  981.313
  37.460  941.294
  37.480  711.192
  37.500  658.779
  37.520  719.300
  37.540  812.600
  37.560  929.625
  37.580 1078.993
  37.600  786.324
  37.620  912.027
  37.640  787.770
  37.660  914.680
  37.680  942.266
  37.700  854.387
  37.720 1322.849
  37.740 1127.020
  37.760 1119.231
  37.780 1166.747
  37.800  931.443
  37.820 1024.663
  37.840 1215.211
  37.860 1241.809
  37.880 1438.076
  37.900 1013.322
  37.920 1405.639
  37.940 1444.429
  37.960  959.333
  37.980 1328.015
  38.000 1223.211
  38.020  949.876
  38.040 1112.514
  38.060 1223.503
  38.080 1054.736
  38.100 1096.717
  38.120 1066.906
  38.140  735.908
  38.160  920.518
  38.180  876.619
  38.200  773.632
  38.220  926.273
  38.240  964.406
  38.260  684.821
  38.280  853.059
  38.300  605.638
  38.320  584.449
  38.340 1023.664
  38.360  901.907
  38.380  671.124
  38.400  990.507
  38.420  887.241
  38.440  961.686
  38.460  912.294
  38.480  956.010
  38.500  934.224
  38.520  660.447
  38.540  474.751
  38.560  434.088
  38.580  845.978
  38.600  604.362
  38.620  399.212
  38.640  668.895
  38.660  897.020
  38.680  874.450
  38.700  779.056
  38.720  374.685
  38.740  668.108
  38.760  645.948
  38.780  808.184
  38.800  444.078
  38.820  749.361
  38.840  419.181
  38.860  834.859
  38.880  711.755
  38.900  654.433
  38.920  335.742
  38.940  674.333
  38.960  710.284
  38.980  380.846
  39.000  659.581
  39.020  714.034
  39.040  679.048
  39.060  610.351
  39.080  654.135
  39.100  481.834
  39.120  821.136
  39.140  466.899
  39.160  846.990
  39.180  726.341
  39.200  503.215
  39.220  467.847
  39.240  461.446
  39.260  580.786
  39.280  507.090
  39.300  377.345
  39.320  453.663
  39.340  356.796
  39.360  851.435
  39.380  503.617
  39.400  767.739
  39.420  478.888
  39.440  657.111
  39.460  699.106
  39.480  603.945
  39.500  809.621
  39.520  400.783
  39.540  427.947
  39.560  651.518
  39.580  757.322
  39.600  425.802
  39.620  473.599
  39.640  434.655
  39.660  750.662
  39.680  795.207
  39.700  758.942
  39.720  721.702
  39.740  634.826
  39.760  512.083
  39.780  444.771
  39.800  562.292
  39.820  909.681
  39.840  515.347
  39.860  811.983
  39.880  826.942
  39.900  439.509
  39.920  652.366
  39.940  620.383
  39.960  862.170
  39.980  763.354
  40.000  564.019
  40.020  806.853
  40.040  571.559
  40.060  659.210
  40.080  786.716
  40.100  583.760
  40.120  750.714
  40.140  737.696
  40.160 1007.225
  40.180  944.302
  40.200  779.589
  40.220  887.933
  40.240  850.267
  40.260  974.996
  40.280  623.909
  40.300  709.755
  40.320 1035.382
  40.340 1021.910
  40.360  774.163
  40.380  623.704
  40.400 1110.656
  40.420  821.152
  40.440  642.722
  40.460  972.558
  40.480  887.390
  40.500  855.809
  40.520  858.147
  40.540  907.688
  40.560  565.265
  40.580  657.989
  40.600  977.776
  40.620  961.989
  40.640  714.405
  40.660  535.383
  40.680  916.600
  40.700  686.216
  40.720  693.934
  40.740  977.543
  40.760  536.981
  40.780 1044.890
  40.800  817.832
  40.820 1066.262
  40.840  724.186
  40.860  873.886
  40.880 1024.934
  40.900  876.737
  40.920 1132.223
  40.940  630.930
  40.960  973.905
  40.980 1016.375
  41.000  884.062
  41.020  745.594
  41.040  662.235
  41.060  796.438
  41.080 1094.959
  41.100 1052.174
  41.120 1076.422
  41.140  825.010
  41.160  738.545
  41.180  915.654
  41.200  868.320
  41.220  584.948
  41.240 1046.382
  41.260  958.629
  41.280  766.043
  41.300  712.445
  41.320  906.929
  41.340 1008.848
  41.360  584.382
  41.380 1041.780
  41.400  766.084
  41.420  941.097
  41.440  724.051
  41.460  716.050
  41.480  609.488
  41.500  813.530
  41.520  822.376
  41.540 1028.643
  41.560 1004.301
  41.580  508.670
  41.600  802.553
  41.620  626.261
  41.640  976.903
  41.660  716.466
  41.680  819.857
  41.700  655.273
  41.720  568.139
  41.740  801.434
  41.760  576.755
  41.780  890.602
  41.800  668.816
  41.820  819.825
  41.840  933.767
  41.860  430.301
  41.880  877.761
  41.900  902.172
  41.920  497.409
  41.940  650.951
  41.960  615.966
  41.980  956.834
  42.000  716.647
  42.020 1019.108
  42.040  840.484
  42.060 1071.939
  42.080  622.262
  42.100  748.618
  42.120  881.753
  42.140  825.456
  42.160  791.336
  42.180  738.913
  42.200  912.818
  42.220  754.792
  42.240  729.962
  42.260 1060.231
  42.280 1187.795
  42.300 1071.701
  42.320 1116.327
  42.340 1056.196
  42.360  944.188
  42.380  882.776
  42.400  764.065
  42.420  814.319
  42.440  825.182
  42.460  964.340
  42.480 1092.466
  42.500  786.318
  42.520 1049.745
  42.540  925.498
  42.560 1076.941
  42.580  828.022
  42.600 1049.561
  42.620 1129.201
  42.640  860.410
  42.660  925.313
  42.680  970.024
  42.700  767.408
  42.720 1019.313
  42.740  821.926
  42.760  896.990
  42.780  863.521
  42.800  841.143
  42.820  529.280
  42.840  607.952
  42.860  677.709
  42.880  668.284
  42.900  562.130
  42.920  884.838
  42.940  631.362
  42.960  688.661
  42.980  658.611
  43.000  602.140
  43.020  645.193
  43.040  792.724
  43.060  640.409
  43.080  522.965
  43.100  361.401
  43.120  583.362
  43.140  586.732
  43.160  567.481
  43.180  308.548
  43.200  786.361
  43.220  363.274
  43.240  305.316
  43.260  631.826
  43.280  759.812
  43.300  549.274
  43.320  582.444
  43.340  663.823
  43.360  419.731
  43.380  665.399
  43.400  320.160
  43.420  339.881
  43.440  391.096
  43.460  335.680
  43.480  373.632
  43.500  523.049
  43.520  355.943
  43.540  758.979
  43.560  531.152
  43.580  433.963
  43.600  792.248
  43.620  782.664
  43.640  570.903
  43.660  708.080
  43.680  452.136
  43.700  771.985
  43.720  475.525
  43.740  612.243
  43.760  591.510
  43.780  486.268
  43.800  570.364
  43.820  614.949
  43.840  461.112
  43.860  690.551
  43.880  764.761
  43.900  855.284
  43.920  862.651
  43.940  531.947
  43.960  630.481
  43.980  790.022
  44.000  377.404
