Sample	
Comments	
Filename	C:\WINDMAX\DATA\USERS\GEO\GEO_ER~1\Pyrenees\BULKMA~1\2M1-std2.raw
Goniometer	Ultima IV In-plane
Attachment	Auto sample changer (10 samples)
ScanningMode	2Theta/Theta
ScanningType	Continuos Scanning
X-Ray	40kV/44mA
DivSlit	2/3deg.
DivH.L.Slit	10mm
SctSlit	2/3deg.
RecSlit	0.3mm
Start	16
Stop	44
Step	0.02
Speed	0.3
Offset	0
  16.000  589.384
  16.020  711.301
  16.040  925.771
  16.060  954.194
  16.080  902.580
  16.100  883.982
  16.120  619.917
  16.140  575.447
  16.160  876.381
  16.180  652.950
  16.200  721.407
  16.220  627.829
  16.240  463.943
  16.260  714.490
  16.280  593.215
  16.300  908.067
  16.320  533.722
  16.340  458.696
  16.360  700.111
  16.380  827.800
  16.400  569.900
  16.420  896.557
  16.440  759.346
  16.460  571.662
  16.480  548.634
  16.500  604.272
  16.520  904.017
  16.540  894.029
  16.560  479.169
  16.580  917.897
  16.600  670.489
  16.620  644.513
  16.640  757.574
  16.660  886.378
  16.680  445.762
  16.700  600.509
  16.720  805.658
  16.740  565.949
  16.760  485.232
  16.780  661.310
  16.800  614.505
  16.820  576.431
  16.840  439.052
  16.860  724.647
  16.880  806.709
  16.900  403.004
  16.920  748.316
  16.940  388.506
  16.960  546.983
  16.980  777.378
  17.000  716.875
  17.020  434.983
  17.040  615.712
  17.060  394.327
  17.080  596.280
  17.100  870.678
  17.120  575.377
  17.140  776.982
  17.160  759.202
  17.180  861.626
  17.200  394.570
  17.220  790.131
  17.240  618.253
  17.260  815.351
  17.280  776.347
  17.300  898.927
  17.320  768.586
  17.340  880.209
  17.360  451.021
  17.380  864.517
  17.400  839.479
  17.420  907.042
  17.440  894.595
  17.460  866.782
  17.480  564.303
  17.500  915.544
  17.520  523.875
  17.540  742.605
  17.560  809.116
  17.580  969.892
  17.600  771.848
  17.620  616.772
  17.640  826.445
  17.660  535.129
  17.680  990.344
  17.700  661.653
  17.720  959.735
  17.740  922.160
  17.760  827.760
  17.780 1167.895
  17.800 1332.536
  17.820 1242.706
  17.840 1286.373
  17.860 1200.299
  17.880 1353.500
  17.900 1158.157
  17.920 1154.582
  17.940 1244.770
  17.960 1455.582
  17.980 1246.592
  18.000 1305.357
  18.020 1035.356
  18.040 1145.181
  18.060 1296.507
  18.080 1091.409
  18.100  952.120
  18.120 1175.571
  18.140  969.419
  18.160 1214.941
  18.180 1096.419
  18.200 1077.081
  18.220  750.420
  18.240 1073.091
  18.260  888.994
  18.280  682.410
  18.300  802.687
  18.320  680.835
  18.340  529.607
  18.360  581.388
  18.380  822.887
  18.400  531.361
  18.420  882.937
  18.440  949.580
  18.460  583.066
  18.480  781.120
  18.500  727.969
  18.520  831.718
  18.540  592.900
  18.560  973.714
  18.580  608.202
  18.600  960.540
  18.620  995.009
  18.640  561.476
  18.660  572.164
  18.680  832.377
  18.700  551.768
  18.720  545.708
  18.740  723.642
  18.760  904.403
  18.780  805.604
  18.800  559.486
  18.820  813.590
  18.840  573.954
  18.860  875.770
  18.880  626.294
  18.900  738.458
  18.920  648.226
  18.940  501.547
  18.960  620.427
  18.980  765.683
  19.000  463.832
  19.020  808.340
  19.040  826.567
  19.060  494.354
  19.080  497.377
  19.100  946.694
  19.120  780.676
  19.140  865.786
  19.160  952.212
  19.180  931.876
  19.200  934.708
  19.220  724.714
  19.240  746.470
  19.260  812.783
  19.280  468.315
  19.300  723.687
  19.320  565.300
  19.340  879.914
  19.360  729.266
  19.380  537.911
  19.400  840.216
  19.420  669.671
  19.440  806.836
  19.460  531.269
  19.480  528.488
  19.500  899.583
  19.520  905.395
  19.540  774.262
  19.560 1112.820
  19.580  777.284
  19.600  926.019
  19.620 1121.675
  19.640 1019.220
  19.660 1230.483
  19.680 1062.123
  19.700 1288.554
  19.720 1225.695
  19.740 1327.956
  19.760 1508.856
  19.780 1317.225
  19.800 1321.451
  19.820 1454.187
  19.840 1630.256
  19.860 1803.768
  19.880 2228.626
  19.900 2027.512
  19.920 2276.611
  19.940 2511.132
  19.960 2726.454
  19.980 2719.239
  20.000 2888.352
  20.020 2592.175
  20.040 2486.044
  20.060 2384.810
  20.080 2615.880
  20.100 2212.867
  20.120 2259.825
  20.140 1752.636
  20.160 1684.529
  20.180 1406.642
  20.200 1532.237
  20.220 1264.840
  20.240 1104.420
  20.260 1278.193
  20.280 1346.993
  20.300 1373.258
  20.320 1157.967
  20.340 1215.923
  20.360  871.329
  20.380  928.485
  20.400  954.141
  20.420 1007.244
  20.440  958.736
  20.460  896.889
  20.480  982.538
  20.500  968.256
  20.520  825.252
  20.540  740.255
  20.560  822.652
  20.580  880.349
  20.600 1012.044
  20.620  982.891
  20.640 1013.541
  20.660 1244.849
  20.680  890.558
  20.700  968.139
  20.720  945.468
  20.740 1009.153
  20.760 1134.680
  20.780 1231.456
  20.800 1312.706
  20.820  994.962
  20.840 1331.315
  20.860 1025.232
  20.880 1147.935
  20.900  911.896
  20.920 1031.583
  20.940 1176.255
  20.960 1004.029
  20.980  797.442
  21.000  898.577
  21.020  939.464
  21.040  772.021
  21.060  637.349
  21.080  614.281
  21.100  851.065
  21.120  710.729
  21.140  744.970
  21.160  966.697
  21.180  680.719
  21.200  861.638
  21.220  848.772
  21.240 1056.403
  21.260  673.948
  21.280  637.795
  21.300 1033.249
  21.320  882.772
  21.340  987.750
  21.360  702.785
  21.380  602.437
  21.400 1077.476
  21.420  731.761
  21.440  704.395
  21.460 1027.642
  21.480 1035.690
  21.500 1174.511
  21.520  769.946
  21.540 1124.612
  21.560  739.538
  21.580 1021.658
  21.600 1122.735
  21.620  930.154
  21.640 1319.956
  21.660 1154.027
  21.680 1090.672
  21.700 1071.738
  21.720 1195.058
  21.740  923.291
  21.760 1344.334
  21.780 1149.071
  21.800  828.073
  21.820 1090.943
  21.840  879.807
  21.860 1019.867
  21.880  778.099
  21.900  731.485
  21.920 1032.268
  21.940  720.959
  21.960  910.702
  21.980  908.764
  22.000 1091.108
  22.020  738.377
  22.040  801.029
  22.060  718.858
  22.080  921.531
  22.100  897.151
  22.120  586.363
  22.140  968.182
  22.160  948.330
  22.180  768.685
  22.200  778.455
  22.220  754.262
  22.240  818.910
  22.260  921.397
  22.280  783.439
  22.300  698.595
  22.320 1004.656
  22.340  615.249
  22.360  933.466
  22.380 1050.768
  22.400  807.486
  22.420  756.619
  22.440 1007.179
  22.460  936.636
  22.480  987.393
  22.500  989.774
  22.520 1139.018
  22.540  729.494
  22.560  985.109
  22.580 1192.488
  22.600  977.860
  22.620 1126.828
  22.640 1075.470
  22.660  761.636
  22.680  807.628
  22.700  781.205
  22.720  792.365
  22.740 1182.685
  22.760  792.457
  22.780  816.997
  22.800  852.555
  22.820  896.370
  22.840  879.334
  22.860 1285.060
  22.880 1282.356
  22.900 1504.559
  22.920 1196.717
  22.940 1205.468
  22.960 1313.919
  22.980 1691.445
  23.000 1719.074
  23.020 1695.453
  23.040 1377.848
  23.060 1470.781
  23.080 1587.351
  23.100 1622.146
  23.120 1539.731
  23.140 1487.498
  23.160 1571.164
  23.180 1202.610
  23.200 1204.131
  23.220 1453.868
  23.240 1193.886
  23.260 1029.990
  23.280 1080.693
  23.300 1132.632
  23.320  883.456
  23.340  930.267
  23.360  686.928
  23.380 1018.871
  23.400  959.102
  23.420 1037.260
  23.440  960.762
  23.460 1087.200
  23.480  900.975
  23.500  624.547
  23.520 1131.634
  23.540  666.650
  23.560  940.212
  23.580  852.271
  23.600  950.056
  23.620  678.192
  23.640  902.989
  23.660 1158.721
  23.680  891.131
  23.700 1214.553
  23.720 1251.811
  23.740 1030.161
  23.760  906.893
  23.780  943.632
  23.800  965.076
  23.820 1319.766
  23.840 1181.673
  23.860 1121.476
  23.880 1632.701
  23.900 1197.033
  23.920 1231.192
  23.940 1768.755
  23.960 1493.521
  23.980 1642.025
  24.000 1518.526
  24.020 1599.008
  24.040 1801.329
  24.060 1575.993
  24.080 1465.733
  24.100 1384.877
  24.120 1585.397
  24.140 1169.974
  24.160 1614.326
  24.180 1572.183
  24.200 1403.653
  24.220 1457.444
  24.240 1158.611
  24.260 1125.799
  24.280 1062.274
  24.300  888.677
  24.320 1184.494
  24.340 1104.860
  24.360 1076.861
  24.380  881.015
  24.400  688.046
  24.420 1033.762
  24.440  799.811
  24.460 1002.691
  24.480 1100.087
  24.500  833.618
  24.520  750.755
  24.540  941.571
  24.560  811.002
  24.580  857.605
  24.600  744.668
  24.620 1023.135
  24.640 1056.771
  24.660  855.906
  24.680  837.773
  24.700  920.031
  24.720  867.293
  24.740  923.405
  24.760 1036.093
  24.780  781.559
  24.800  854.859
  24.820 1013.077
  24.840  693.654
  24.860  861.339
  24.880 1090.875
  24.900  846.469
  24.920  968.305
  24.940  845.188
  24.960  725.600
  24.980  906.560
  25.000 1113.625
  25.020  804.792
  25.040 1100.122
  25.060 1140.047
  25.080 1038.438
  25.100  783.305
  25.120  918.836
  25.140 1143.889
  25.160  941.794
  25.180 1142.982
  25.200  945.420
  25.220 1028.275
  25.240 1239.188
  25.260  879.382
  25.280 1027.934
  25.300 1213.954
  25.320 1204.859
  25.340 1088.528
  25.360 1212.651
  25.380 1351.997
  25.400 1002.498
  25.420 1109.840
  25.440 1078.079
  25.460 1517.228
  25.480 1488.047
  25.500 1669.866
  25.520 1648.064
  25.540 1492.341
  25.560 1508.227
  25.580 1765.112
  25.600 1678.872
  25.620 1746.995
  25.640 1607.414
  25.660 1820.764
  25.680 1763.766
  25.700 1770.240
  25.720 1384.259
  25.740 1763.223
  25.760 1411.881
  25.780 1556.980
  25.800 1458.059
  25.820 1045.434
  25.840 1392.326
  25.860  928.556
  25.880 1197.723
  25.900  973.792
  25.920  930.350
  25.940 1155.498
  25.960  940.801
  25.980  702.169
  26.000 1007.052
  26.020 1106.419
  26.040  733.095
  26.060  888.930
  26.080  683.990
  26.100  918.056
  26.120  948.365
  26.140  964.809
  26.160  999.497
  26.180  747.324
  26.200 1013.608
  26.220 1144.412
  26.240 1081.972
  26.260 1146.088
  26.280 1073.521
  26.300 1131.431
  26.320  957.083
  26.340 1156.914
  26.360 1100.693
  26.380  884.232
  26.400  892.378
  26.420  753.589
  26.440 1262.084
  26.460 1074.189
  26.480 1069.262
  26.500 1360.807
  26.520 1219.755
  26.540 1308.309
  26.560 1519.920
  26.580 1216.155
  26.600 1480.513
  26.620 1704.333
  26.640 1800.941
  26.660 1430.221
  26.680 1827.282
  26.700 2069.452
  26.720 2073.468
  26.740 2169.780
  26.760 2111.642
  26.780 2226.267
  26.800 2238.947
  26.820 2534.857
  26.840 2553.454
  26.860 2343.184
  26.880 2364.465
  26.900 2129.148
  26.920 2214.833
  26.940 2062.635
  26.960 2016.584
  26.980 2120.148
  27.000 1702.247
  27.020 2007.535
  27.040 1766.968
  27.060 1609.043
  27.080 1591.709
  27.100 1127.935
  27.120 1416.759
  27.140 1138.822
  27.160 1167.896
  27.180  899.519
  27.200  964.367
  27.220 1114.487
  27.240 1229.321
  27.260  933.716
  27.280 1173.165
  27.300  783.382
  27.320 1086.538
  27.340  760.634
  27.360  637.301
  27.380  887.910
  27.400  775.071
  27.420  751.856
  27.440  943.890
  27.460  847.907
  27.480  989.416
  27.500  749.163
  27.520  797.545
  27.540  814.676
  27.560  965.410
  27.580  852.652
  27.600 1196.023
  27.620  706.358
  27.640  961.831
  27.660 1004.980
  27.680 1066.386
  27.700 1111.487
  27.720 1174.285
  27.740 1313.713
  27.760 1237.729
  27.780  852.811
  27.800 1269.931
  27.820 1067.838
  27.840 1037.117
  27.860 1195.450
  27.880 1107.366
  27.900 1621.243
  27.920 1423.829
  27.940 1648.495
  27.960 1510.372
  27.980 1457.441
  28.000 1795.136
  28.020 1912.975
  28.040 1542.216
  28.060 1540.818
  28.080 1451.526
  28.100 1606.403
  28.120 1486.153
  28.140 1357.085
  28.160 1461.982
  28.180 1385.750
  28.200 1442.446
  28.220 1112.138
  28.240 1163.324
  28.260  936.612
  28.280 1201.668
  28.300  931.253
  28.320  874.570
  28.340 1079.942
  28.360 1045.747
  28.380 1195.922
  28.400  710.419
  28.420 1117.094
  28.440  934.420
  28.460  754.748
  28.480  875.385
  28.500  824.361
  28.520  754.036
  28.540 1069.667
  28.560 1060.793
  28.580 1111.707
  28.600  923.517
  28.620 1128.406
  28.640  727.588
  28.660  751.599
  28.680  939.497
  28.700 1072.770
  28.720  920.772
  28.740 1148.735
  28.760 1106.964
  28.780  631.970
  28.800  914.583
  28.820  813.048
  28.840  821.479
  28.860  760.638
  28.880  727.469
  28.900  883.445
  28.920  686.390
  28.940  927.856
  28.960  735.202
  28.980  803.315
  29.000  674.972
  29.020 1049.729
  29.040  847.911
  29.060  860.909
  29.080  800.324
  29.100  581.811
  29.120  546.984
  29.140  649.308
  29.160  707.813
  29.180  653.229
  29.200  957.320
  29.220  666.184
  29.240  891.931
  29.260  570.328
  29.280  924.212
  29.300  974.814
  29.320  949.677
  29.340  875.268
  29.360  749.781
  29.380  510.389
  29.400  928.317
  29.420  589.132
  29.440  960.511
  29.460  652.303
  29.480  583.239
  29.500  895.818
  29.520  806.703
  29.540  591.774
  29.560  984.864
  29.580  589.096
  29.600 1025.050
  29.620 1058.138
  29.640  945.666
  29.660  888.486
  29.680  850.869
  29.700  798.215
  29.720 1006.548
  29.740  970.767
  29.760  904.933
  29.780 1191.419
  29.800  924.018
  29.820 1062.433
  29.840 1393.102
  29.860 1256.435
  29.880 1240.426
  29.900 1198.460
  29.920 1225.425
  29.940 1636.318
  29.960 1685.176
  29.980 1485.778
  30.000 1746.478
  30.020 1392.514
  30.040 1585.668
  30.060 1489.672
  30.080 1286.440
  30.100 1675.238
  30.120 1231.041
  30.140 1478.081
  30.160 1311.948
  30.180 1006.444
  30.200 1340.826
  30.220 1334.034
  30.240  999.600
  30.260  807.445
  30.280 1067.081
  30.300  775.306
  30.320  720.177
  30.340 1092.649
  30.360  620.945
  30.380  612.473
  30.400  579.898
  30.420  532.587
  30.440  770.590
  30.460  966.021
  30.480  555.869
  30.500  531.544
  30.520  526.070
  30.540  844.394
  30.560  703.049
  30.580  502.544
  30.600  746.862
  30.620  648.526
  30.640  530.718
  30.660  512.249
  30.680  706.937
  30.700  595.379
  30.720  892.174
  30.740  592.580
  30.760  537.764
  30.780  727.864
  30.800  595.358
  30.820  639.954
  30.840  594.242
  30.860  815.007
  30.880  862.387
  30.900  939.715
  30.920  639.978
  30.940  607.214
  30.960  731.449
  30.980  913.421
  31.000  733.447
  31.020  990.752
  31.040  808.397
  31.060  923.479
  31.080 1053.644
  31.100 1203.198
  31.120 1024.546
  31.140  853.778
  31.160 1216.240
  31.180 1124.952
  31.200 1072.086
  31.220 1170.722
  31.240 1153.944
  31.260 1234.314
  31.280 1386.500
  31.300 1348.365
  31.320 1232.788
  31.340 1397.668
  31.360 1617.478
  31.380 1619.840
  31.400 1752.390
  31.420 1725.339
  31.440 1453.368
  31.460 1766.219
  31.480 1763.751
  31.500 1592.276
  31.520 1452.135
  31.540 1319.082
  31.560 1312.976
  31.580 1444.182
  31.600 1633.231
  31.620 1457.438
  31.640 1485.831
  31.660 1394.053
  31.680 1332.563
  31.700 1449.715
  31.720 1483.046
  31.740 1178.909
  31.760 1366.335
  31.780 1411.678
  31.800 1346.350
  31.820 1390.131
  31.840 1297.637
  31.860 1539.956
  31.880 1106.048
  31.900 1094.310
  31.920 1102.454
  31.940 1017.187
  31.960 1207.004
  31.980 1217.259
  32.000  834.292
  32.020  970.654
  32.040 1180.240
  32.060  973.581
  32.080  996.993
  32.100 1183.204
  32.120  938.785
  32.140 1397.422
  32.160  969.903
  32.180 1216.248
  32.200 1372.176
  32.220  960.181
  32.240 1066.055
  32.260 1070.332
  32.280 1022.498
  32.300  976.540
  32.320 1207.108
  32.340 1093.103
  32.360 1156.462
  32.380  952.421
  32.400 1065.145
  32.420 1102.047
  32.440  931.083
  32.460  803.885
  32.480  921.765
  32.500  644.539
  32.520  595.727
  32.540  967.464
  32.560  751.879
  32.580  849.101
  32.600  937.960
  32.620  696.809
  32.640  546.121
  32.660  749.059
  32.680  743.068
  32.700  493.420
  32.720  673.825
  32.740  472.977
  32.760  860.611
  32.780  595.393
  32.800  525.673
  32.820  857.746
  32.840  488.954
  32.860  590.986
  32.880  649.289
  32.900  515.215
  32.920  961.325
  32.940  895.660
  32.960  570.709
  32.980  653.530
  33.000  695.870
  33.020  733.082
  33.040  780.694
  33.060  713.464
  33.080  601.265
  33.100  839.750
  33.120  880.967
  33.140  593.112
  33.160  609.614
  33.180  490.935
  33.200  505.520
  33.220  769.961
  33.240  635.375
  33.260  821.404
  33.280  590.254
  33.300  500.874
  33.320  432.192
  33.340  823.443
  33.360  608.940
  33.380  465.577
  33.400  712.776
  33.420  867.187
  33.440  817.998
  33.460  453.313
  33.480  696.121
  33.500  418.357
  33.520  882.276
  33.540  674.769
  33.560  868.668
  33.580  525.500
  33.600  758.159
  33.620  658.530
  33.640  776.606
  33.660  609.866
  33.680  913.544
  33.700  659.288
  33.720  557.165
  33.740  503.815
  33.760  728.756
  33.780  534.013
  33.800  754.169
  33.820  774.430
  33.840  868.568
  33.860  580.715
  33.880  949.366
  33.900  864.197
  33.920  678.094
  33.940  809.697
  33.960  860.157
  33.980  752.940
  34.000  795.826
  34.020  459.325
  34.040  485.782
  34.060  775.325
  34.080  837.049
  34.100  851.027
  34.120  885.385
  34.140  622.266
  34.160  851.582
  34.180  768.809
  34.200 1001.640
  34.220  628.657
  34.240  787.126
  34.260  640.744
  34.280  808.755
  34.300  970.764
  34.320  597.323
  34.340  747.631
  34.360  610.561
  34.380  660.124
  34.400  836.555
  34.420  935.790
  34.440  622.640
  34.460  705.726
  34.480 1005.202
  34.500  845.709
  34.520  756.875
  34.540  879.803
  34.560 1003.857
  34.580 1188.606
  34.600  965.582
  34.620 1170.769
  34.640 1382.522
  34.660 1361.918
  34.680 1494.209
  34.700 1328.457
  34.720 1788.057
  34.740 1643.598
  34.760 1872.513
  34.780 1713.151
  34.800 1785.289
  34.820 1914.393
  34.840 1605.179
  34.860 1924.055
  34.880 1991.892
  34.900 1794.079
  34.920 1583.224
  34.940 1827.461
  34.960 1820.631
  34.980 2053.737
  35.000 1856.871
  35.020 2397.593
  35.040 2322.938
  35.060 2622.688
  35.080 2396.190
  35.100 2533.186
  35.120 2880.216
  35.140 2749.843
  35.160 3063.615
  35.180 3025.698
  35.200 2755.679
  35.220 2487.701
  35.240 2675.288
  35.260 2188.869
  35.280 2139.956
  35.300 1918.803
  35.320 1746.182
  35.340 1565.331
  35.360 1527.640
  35.380 1522.109
  35.400 1632.605
  35.420 1290.595
  35.440 1336.657
  35.460  892.702
  35.480 1133.474
  35.500  883.522
  35.520  984.749
  35.540  998.639
  35.560  640.752
  35.580  872.493
  35.600  896.023
  35.620  870.869
  35.640  604.349
  35.660 1051.301
  35.680  789.439
  35.700  729.457
  35.720  653.812
  35.740  574.599
  35.760  634.100
  35.780  638.554
  35.800  594.868
  35.820  824.960
  35.840  875.693
  35.860 1044.312
  35.880  901.652
  35.900  964.862
  35.920  788.849
  35.940  880.820
  35.960  647.361
  35.980  931.420
  36.000 1014.170
  36.020  765.338
  36.040  591.929
  36.060  613.906
  36.080 1031.230
  36.100 1043.413
  36.120  637.452
  36.140  714.259
  36.160  895.286
  36.180  854.340
  36.200  760.524
  36.220  940.497
  36.240  898.870
  36.260  596.190
  36.280  807.481
  36.300  699.669
  36.320  655.312
  36.340  635.943
  36.360 1061.154
  36.380  769.983
  36.400  928.895
  36.420 1062.949
  36.440  958.759
  36.460  716.883
  36.480  908.746
  36.500  768.369
  36.520  997.477
  36.540  942.627
  36.560 1264.410
  36.580  932.225
  36.600 1253.419
  36.620 1352.444
  36.640 1112.494
  36.660  982.099
  36.680 1271.553
  36.700 1010.791
  36.720 1321.952
  36.740 1000.335
  36.760 1218.288
  36.780 1154.865
  36.800  994.832
  36.820 1020.164
  36.840 1098.928
  36.860  747.996
  36.880 1113.582
  36.900  756.444
  36.920  914.967
  36.940  963.080
  36.960 1076.116
  36.980 1040.648
  37.000  716.765
  37.020  716.736
  37.040 1037.289
  37.060  649.032
  37.080  827.118
  37.100 1052.248
  37.120  685.459
  37.140  623.159
  37.160  632.681
  37.180  691.390
  37.200  649.082
  37.220  628.399
  37.240  829.145
  37.260  628.992
  37.280  567.271
  37.300  713.185
  37.320  612.797
  37.340  616.326
  37.360  964.106
  37.380  588.976
  37.400  728.652
  37.420  673.423
  37.440  900.398
  37.460  663.889
  37.480  989.555
  37.500  796.129
  37.520  800.582
  37.540  629.224
  37.560  819.192
  37.580  959.072
  37.600  685.210
  37.620  818.611
  37.640 1007.142
  37.660  901.664
  37.680 1228.923
  37.700  990.095
  37.720 1261.880
  37.740 1055.975
  37.760 1145.732
  37.780 1209.401
  37.800 1241.902
  37.820 1327.354
  37.840 1016.775
  37.860 1130.919
  37.880 1055.649
  37.900 1133.144
  37.920 1010.536
  37.940  980.265
  37.960 1133.524
  37.980 1104.942
  38.000  954.263
  38.020 1046.143
  38.040 1200.992
  38.060 1303.452
  38.080  901.216
  38.100 1254.040
  38.120  983.907
  38.140 1055.070
  38.160  974.758
  38.180 1136.027
  38.200  613.636
  38.220 1010.050
  38.240  938.555
  38.260  863.077
  38.280  644.441
  38.300  677.286
  38.320  929.450
  38.340  703.292
  38.360 1038.572
  38.380  546.608
  38.400  979.554
  38.420  719.548
  38.440  911.926
  38.460  626.724
  38.480  601.259
  38.500  830.215
  38.520  928.033
  38.540  439.050
  38.560  637.307
  38.580  737.846
  38.600  754.340
  38.620  766.748
  38.640  614.233
  38.660  620.765
  38.680  859.036
  38.700  695.516
  38.720  541.454
  38.740  528.366
  38.760  762.129
  38.780  889.974
  38.800  873.469
  38.820  598.870
  38.840  740.303
  38.860  529.141
  38.880  605.512
  38.900  592.735
  38.920  596.046
  38.940  403.288
  38.960  835.078
  38.980  376.890
  39.000  491.978
  39.020  414.013
  39.040  824.567
  39.060  371.029
  39.080  729.711
  39.100  429.737
  39.120  702.376
  39.140  700.821
  39.160  352.526
  39.180  635.398
  39.200  808.404
  39.220  542.059
  39.240  543.622
  39.260  583.446
  39.280  360.777
  39.300  532.804
  39.320  749.570
  39.340  518.654
  39.360  535.144
  39.380  615.081
  39.400  617.839
  39.420  534.797
  39.440  593.485
  39.460  750.659
  39.480  386.985
  39.500  550.421
  39.520  845.816
  39.540  801.238
  39.560  467.880
  39.580  679.617
  39.600  690.252
  39.620  635.298
  39.640  440.642
  39.660  369.351
  39.680  752.667
  39.700  735.641
  39.720  546.704
  39.740  479.615
  39.760  876.665
  39.780  479.204
  39.800  677.041
  39.820  396.237
  39.840  842.882
  39.860  402.228
  39.880  456.236
  39.900  559.128
  39.920  386.291
  39.940  494.486
  39.960  859.995
  39.980  792.485
  40.000  457.268
  40.020  511.314
  40.040  908.964
  40.060  648.004
  40.080  890.842
  40.100  796.403
  40.120  988.961
  40.140  788.112
  40.160  842.353
  40.180  898.622
  40.200  701.662
  40.220 1000.755
  40.240  852.102
  40.260  683.305
  40.280  990.277
  40.300  919.744
  40.320  683.524
  40.340  757.502
  40.360  738.906
  40.380  657.888
  40.400 1031.772
  40.420 1077.894
  40.440  918.502
  40.460  936.330
  40.480  674.618
  40.500 1015.595
  40.520  851.040
  40.540  712.994
  40.560  604.714
  40.580  916.600
  40.600  975.769
  40.620  848.083
  40.640  661.342
  40.660  563.870
  40.680  782.347
  40.700  605.243
  40.720  814.275
  40.740  877.201
  40.760  854.673
  40.780  698.403
  40.800  579.154
  40.820  638.185
  40.840 1044.008
  40.860 1012.533
  40.880 1056.974
  40.900  782.624
  40.920  919.993
  40.940  879.775
  40.960  863.115
  40.980  970.175
  41.000 1109.020
  41.020  802.629
  41.040  836.998
  41.060  640.307
  41.080  776.166
  41.100  750.934
  41.120  886.541
  41.140  679.886
  41.160  596.791
  41.180  952.501
  41.200  613.012
  41.220  600.776
  41.240  638.406
  41.260 1028.049
  41.280  589.621
  41.300  551.232
  41.320  947.674
  41.340  738.953
  41.360  651.437
  41.380  875.033
  41.400  743.357
  41.420  709.270
  41.440 1037.468
  41.460  784.287
  41.480  921.266
  41.500  636.323
  41.520 1006.762
  41.540  576.856
  41.560  543.890
  41.580  567.367
  41.600  919.347
  41.620  716.273
  41.640  674.841
  41.660  743.899
  41.680  944.965
  41.700  729.607
  41.720  735.045
  41.740  840.687
  41.760  860.708
  41.780  470.834
  41.800  515.623
  41.820  427.157
  41.840  949.128
  41.860  845.145
  41.880  725.512
  41.900  896.994
  41.920  840.608
  41.940  825.743
  41.960  473.215
  41.980  586.077
  42.000  703.074
  42.020  788.904
  42.040  876.346
  42.060  991.696
  42.080  558.485
  42.100  757.726
  42.120  852.609
  42.140 1104.464
  42.160 1120.722
  42.180 1133.143
  42.200  886.873
  42.220  883.413
  42.240  700.314
  42.260 1055.898
  42.280  767.015
  42.300 1184.937
  42.320  746.341
  42.340  868.635
  42.360  990.397
  42.380  912.743
  42.400 1118.354
  42.420 1096.101
  42.440  858.452
  42.460  742.425
  42.480  870.432
  42.500 1049.872
  42.520 1010.936
  42.540 1154.023
  42.560 1086.982
  42.580  922.908
  42.600  911.258
  42.620 1284.905
  42.640 1143.944
  42.660 1050.425
  42.680  858.537
  42.700 1111.925
  42.720  779.120
  42.740  870.039
  42.760  808.264
  42.780 1051.007
  42.800  999.044
  42.820  742.291
  42.840  692.142
  42.860  801.603
  42.880  628.716
  42.900  890.575
  42.920  869.318
  42.940  824.138
  42.960  875.696
  42.980  677.668
  43.000  617.472
  43.020  621.961
  43.040  699.849
  43.060  598.782
  43.080  747.621
  43.100  400.953
  43.120  583.870
  43.140  500.232
  43.160  342.156
  43.180  689.765
  43.200  570.152
  43.220  365.128
  43.240  553.275
  43.260  313.255
  43.280  719.042
  43.300  479.381
  43.320  544.996
  43.340  501.996
  43.360  623.134
  43.380  488.410
  43.400  775.204
  43.420  477.147
  43.440  452.895
  43.460  576.901
  43.480  704.990
  43.500  601.331
  43.520  417.214
  43.540  739.200
  43.560  596.966
  43.580  744.949
  43.600  334.319
  43.620  800.533
  43.640  598.243
  43.660  753.110
  43.680  426.692
  43.700  660.176
  43.720  428.996
  43.740  374.879
  43.760  456.908
  43.780  631.460
  43.800  743.192
  43.820  421.178
  43.840  669.270
  43.860  523.015
  43.880  547.107
  43.900  430.819
  43.920  517.084
  43.940  837.274
  43.960  447.335
  43.980  516.487
  44.000  855.784
