Sample	
Comments	
Filename	C:\WINDMAX\DATA\USERS\GEO\GEO_ER~1\Pyrenees\BULKMA~1\2M1-std2.raw
Goniometer	Ultima IV In-plane
Attachment	Auto sample changer (10 samples)
ScanningMode	2Theta/Theta
ScanningType	Continuos Scanning
X-Ray	40kV/44mA
DivSlit	2/3deg.
DivH.L.Slit	10mm
SctSlit	2/3deg.
RecSlit	0.3mm
Start	16
Stop	44
Step	0.02
Speed	0.3
Offset	0
  16.000  632.682
  16.020  677.704
  16.040  462.254
  16.060  711.728
  16.080  593.644
  16.100  977.759
  16.120  982.732
  16.140  626.151
  16.160  572.333
  16.180  713.873
  16.200  722.880
  16.220  460.901
  16.240  719.395
  16.260  815.762
  16.280  599.645
  16.300  548.483
  16.320  545.328
  16.340  445.973
  16.360  674.797
  16.380  429.667
  16.400  494.561
  16.420  452.361
  16.440  829.141
  16.460  829.992
  16.480  545.908
  16.500  870.835
  16.520  423.937
  16.540  691.338
  16.560  486.877
  16.580  657.927
  16.600  882.003
  16.620  758.704
  16.640  460.552
  16.660  597.186
  16.680  608.925
  16.700  566.419
  16.720  518.483
  16.740  615.453
  16.760  813.348
  16.780  656.666
  16.800  518.429
  16.820  786.874
  16.840  896.143
  16.860  879.809
  16.880  623.412
  16.900  450.700
  16.920  610.447
  16.940  806.514
  16.960  796.427
  16.980  807.931
  17.000  814.813
  17.020  453.090
  17.040  916.983
  17.060  493.201
  17.080  742.150
  17.100  437.292
  17.120  721.326
  17.140  833.952
  17.160  534.844
  17.180  534.082
  17.200  794.634
  17.220  906.313
  17.240  390.181
  17.260  922.771
  17.280  779.850
  17.300  624.450
  17.320  459.001
  17.340  824.025
  17.360  902.644
  17.380  542.771
  17.400  559.919
  17.420  528.439
  17.440  647.312
  17.460  482.575
  17.480  617.164
  17.500  805.221
  17.520  995.886
  17.540  754.823
  17.560  493.225
  17.580  853.686
  17.600  778.234
  17.620  767.956
  17.640  867.968
  17.660  543.203
  17.680  832.367
  17.700  822.281
  17.720 1012.999
  17.740 1113.540
  17.760 1041.656
  17.780  823.578
  17.800 1320.310
  17.820 1312.873
  17.840  966.639
  17.860 1483.621
  17.880 1479.040
  17.900 1558.482
  17.920 1487.148
  17.940 1340.177
  17.960 1226.073
  17.980 1020.108
  18.000 1167.388
  18.020 1204.611
  18.040 1528.786
  18.060 1418.566
  18.080 1210.317
  18.100  946.856
  18.120 1380.220
  18.140 1380.036
  18.160  818.076
  18.180 1004.301
  18.200  749.692
  18.220  847.594
  18.240  830.195
  18.260  925.556
  18.280  837.233
  18.300  918.578
  18.320  657.068
  18.340  643.269
  18.360  937.404
  18.380  752.027
  18.400  667.197
  18.420  529.158
  18.440  709.289
  18.460  840.538
  18.480  721.414
  18.500  871.203
  18.520  638.964
  18.540  693.328
  18.560  643.583
  18.580  627.063
  18.600  856.828
  18.620  911.786
  18.640  637.569
  18.660  656.603
  18.680  891.359
  18.700  845.641
  18.720  733.247
  18.740  874.617
  18.760  627.738
  18.780  661.056
  18.800  963.719
  18.820  852.800
  18.840  709.020
  18.860  825.193
  18.880  901.385
  18.900  634.590
  18.920  724.410
  18.940  757.715
  18.960  891.774
  18.980  669.563
  19.000  758.421
  19.020  925.571
  19.040  963.261
  19.060  857.934
  19.080  524.734
  19.100  514.507
  19.120  592.541
  19.140  681.887
  19.160  676.952
  19.180  807.656
  19.200  937.374
  19.220  660.727
  19.240  562.422
  19.260  716.230
  19.280  880.711
  19.300  826.622
  19.320  904.795
  19.340  778.595
  19.360  997.850
  19.380  901.447
  19.400  908.351
  19.420  579.918
  19.440  771.001
  19.460  715.582
  19.480  982.260
  19.500  944.517
  19.520  951.261
  19.540  970.589
  19.560  709.940
  19.580  774.499
  19.600 1190.172
  19.620  784.700
  19.640  778.433
  19.660  866.340
  19.680  954.936
  19.700 1145.552
  19.720 1092.842
  19.740 1466.625
  19.760 1214.471
  19.780 1403.674
  19.800 1469.436
  19.820 1652.603
  19.840 1711.611
  19.860 1787.488
  19.880 2184.661
  19.900 2048.403
  19.920 2395.219
  19.940 2594.400
  19.960 2654.371
  19.980 2594.362
  20.000 2861.524
  20.020 2800.275
  20.040 2574.830
  20.060 2313.584
  20.080 2291.477
  20.100 2080.676
  20.120 2154.760
  20.140 1978.417
  20.160 1826.503
  20.180 1714.703
  20.200 1575.786
  20.220 1451.695
  20.240 1318.155
  20.260 1318.188
  20.280 1423.752
  20.300 1224.363
  20.320 1339.845
  20.340 1231.387
  20.360 1225.098
  20.380 1205.175
  20.400  865.231
  20.420 1226.616
  20.440 1194.446
  20.460  976.697
  20.480 1191.602
  20.500  864.951
  20.520  904.927
  20.540  838.945
  20.560  827.702
  20.580 1123.370
  20.600 1229.195
  20.620  990.546
  20.640 1117.872
  20.660 1033.530
  20.680 1283.544
  20.700 1160.737
  20.720  951.218
  20.740 1189.952
  20.760 1253.149
  20.780 1325.919
  20.800 1163.667
  20.820 1395.870
  20.840 1095.116
  20.860 1399.857
  20.880 1049.315
  20.900 1075.783
  20.920  925.453
  20.940 1148.440
  20.960 1062.309
  20.980  918.728
  21.000  945.854
  21.020  877.876
  21.040  955.728
  21.060 1006.200
  21.080  574.098
  21.100 1028.155
  21.120  990.616
  21.140  829.957
  21.160  707.108
  21.180 1019.525
  21.200  934.080
  21.220  593.012
  21.240  969.872
  21.260  536.136
  21.280 1007.771
  21.300  806.390
  21.320  722.467
  21.340  842.649
  21.360  814.237
  21.380  699.846
  21.400  693.262
  21.420  745.700
  21.440  768.183
  21.460  659.306
  21.480 1002.925
  21.500 1185.770
  21.520  695.896
  21.540 1131.854
  21.560  779.423
  21.580  940.785
  21.600  993.035
  21.620  798.630
  21.640 1065.401
  21.660  880.763
  21.680  961.080
  21.700  852.769
  21.720  948.951
  21.740 1072.011
  21.760  886.697
  21.780 1005.127
  21.800 1066.300
  21.820  953.155
  21.840  849.882
  21.860 1071.068
  21.880  992.251
  21.900  996.424
  21.920 1088.024
  21.940  874.810
  21.960 1076.986
  21.980 1061.071
  22.000  987.849
  22.020  819.976
  22.040  711.443
  22.060  773.388
  22.080  566.656
  22.100  816.303
  22.120  844.617
  22.140 1030.944
  22.160  805.551
  22.180  899.045
  22.200  724.485
  22.220  716.609
  22.240  665.934
  22.260  753.395
  22.280  642.116
  22.300  638.208
  22.320  591.761
  22.340  724.162
  22.360  708.726
  22.380  633.927
  22.400  945.866
  22.420  882.823
  22.440 1010.811
  22.460 1126.638
  22.480  885.763
  22.500  727.534
  22.520 1136.310
  22.540  907.051
  22.560  958.521
  22.580  756.303
  22.600  793.258
  22.620 1009.125
  22.640 1026.176
  22.660 1083.954
  22.680  952.244
  22.700  799.440
  22.720 1156.829
  22.740  891.907
  22.760  906.454
  22.780  819.110
  22.800  967.135
  22.820 1264.251
  22.840  901.923
  22.860 1037.132
  22.880 1250.147
  22.900 1361.734
  22.920 1136.067
  22.940 1578.969
  22.960 1682.334
  22.980 1549.894
  23.000 1387.266
  23.020 1349.827
  23.040 1554.756
  23.060 1678.839
  23.080 1436.298
  23.100 1814.448
  23.120 1690.907
  23.140 1442.684
  23.160 1220.480
  23.180 1144.519
  23.200 1312.650
  23.220 1465.841
  23.240 1161.327
  23.260 1196.202
  23.280  910.372
  23.300  994.016
  23.320 1096.154
  23.340 1017.256
  23.360 1176.972
  23.380  740.942
  23.400  905.742
  23.420 1156.056
  23.440  966.018
  23.460  749.786
  23.480  824.272
  23.500  924.702
  23.520  664.630
  23.540  925.587
  23.560  885.160
  23.580 1127.369
  23.600  852.966
  23.620  883.611
  23.640  750.095
  23.660  936.113
  23.680  830.686
  23.700 1111.043
  23.720 1066.125
  23.740 1122.597
  23.760 1307.705
  23.780 1245.724
  23.800 1257.922
  23.820 1144.615
  23.840 1056.775
  23.860 1280.775
  23.880 1285.449
  23.900 1617.817
  23.920 1509.495
  23.940 1566.610
  23.960 1530.286
  23.980 1462.525
  24.000 1591.646
  24.020 1350.591
  24.040 1587.078
  24.060 1505.633
  24.080 1373.832
  24.100 1482.047
  24.120 1593.790
  24.140 1210.607
  24.160 1192.001
  24.180 1071.473
  24.200 1243.716
  24.220 1418.585
  24.240 1008.892
  24.260 1032.938
  24.280 1249.887
  24.300  884.399
  24.320 1322.437
  24.340 1219.682
  24.360  991.122
  24.380 1126.513
  24.400 1092.871
  24.420 1189.844
  24.440  706.719
  24.460 1000.035
  24.480  972.400
  24.500  887.425
  24.520  719.827
  24.540  578.448
  24.560  926.086
  24.580  653.468
  24.600  988.512
  24.620 1096.779
  24.640  721.347
  24.660  583.877
  24.680  765.749
  24.700  571.272
  24.720  895.561
  24.740  750.546
  24.760  620.432
  24.780  620.392
  24.800  584.172
  24.820  688.236
  24.840  930.792
  24.860  832.296
  24.880  983.548
  24.900 1061.305
  24.920  956.743
  24.940  731.437
  24.960  827.712
  24.980  992.854
  25.000 1004.459
  25.020  901.196
  25.040 1076.877
  25.060  765.725
  25.080 1147.597
  25.100  868.163
  25.120  797.707
  25.140 1115.073
  25.160  820.746
  25.180 1153.109
  25.200 1224.457
  25.220 1352.648
  25.240 1258.327
  25.260 1386.943
  25.280 1274.338
  25.300  973.724
  25.320 1206.382
  25.340 1304.849
  25.360 1194.215
  25.380 1001.556
  25.400 1205.473
  25.420 1243.776
  25.440 1280.463
  25.460 1352.343
  25.480 1431.027
  25.500 1684.090
  25.520 1433.985
  25.540 1466.280
  25.560 1345.193
  25.580 1478.377
  25.600 1746.099
  25.620 1913.754
  25.640 1607.940
  25.660 1876.900
  25.680 1698.775
  25.700 1801.051
  25.720 1472.433
  25.740 1620.229
  25.760 1384.127
  25.780 1466.483
  25.800 1411.985
  25.820 1058.783
  25.840 1215.870
  25.860 1358.972
  25.880  838.656
  25.900  920.862
  25.920  945.382
  25.940 1192.388
  25.960 1088.018
  25.980 1030.626
  26.000  860.724
  26.020  854.350
  26.040 1065.015
  26.060  889.089
  26.080  997.584
  26.100 1030.373
  26.120  882.923
  26.140  978.736
  26.160  811.939
  26.180 1154.662
  26.200 1091.248
  26.220  671.775
  26.240  840.371
  26.260  652.778
  26.280  920.343
  26.300  978.965
  26.320  660.200
  26.340 1139.814
  26.360 1137.132
  26.380  850.700
  26.400  728.903
  26.420  897.892
  26.440  940.916
  26.460  857.483
  26.480 1332.103
  26.500  873.209
  26.520 1418.891
  26.540  966.740
  26.560 1043.222
  26.580 1269.306
  26.600 1595.543
  26.620 1328.189
  26.640 1344.988
  26.660 1424.431
  26.680 1559.015
  26.700 1704.459
  26.720 2097.560
  26.740 2288.769
  26.760 2324.179
  26.780 1980.047
  26.800 2479.223
  26.820 2519.523
  26.840 2542.420
  26.860 2388.957
  26.880 2379.536
  26.900 2312.940
  26.920 2263.322
  26.940 2233.147
  26.960 1937.351
  26.980 1826.138
  27.000 1817.668
  27.020 1877.853
  27.040 1623.489
  27.060 1274.383
  27.080 1284.075
  27.100 1362.765
  27.120 1484.635
  27.140 1420.324
  27.160 1386.937
  27.180 1321.519
  27.200 1040.976
  27.220 1200.124
  27.240  822.643
  27.260  744.607
  27.280 1043.781
  27.300  894.781
  27.320 1010.788
  27.340  742.894
  27.360 1054.740
  27.380  777.414
  27.400  869.434
  27.420  825.942
  27.440  786.748
  27.460 1130.811
  27.480  885.884
  27.500  825.530
  27.520  836.748
  27.540 1163.513
  27.560 1019.272
  27.580 1050.020
  27.600  700.056
  27.620  677.004
  27.640  835.087
  27.660 1069.889
  27.680 1043.256
  27.700 1084.059
  27.720  840.820
  27.740  878.904
  27.760  895.629
  27.780 1255.929
  27.800 1088.133
  27.820 1154.951
  27.840 1108.929
  27.860 1371.267
  27.880 1397.057
  27.900 1323.407
  27.920 1611.110
  27.940 1425.050
  27.960 1478.641
  27.980 1846.735
  28.000 1463.103
  28.020 1690.281
  28.040 1427.267
  28.060 1619.504
  28.080 1644.094
  28.100 1542.572
  28.120 1704.203
  28.140 1367.738
  28.160 1521.805
  28.180 1394.944
  28.200 1260.752
  28.220 1169.838
  28.240 1100.410
  28.260  897.637
  28.280  986.228
  28.300  808.404
  28.320  902.625
  28.340  927.546
  28.360  809.649
  28.380 1140.459
  28.400  880.003
  28.420  749.557
  28.440 1010.673
  28.460  705.036
  28.480  615.222
  28.500  696.766
  28.520  659.159
  28.540  842.936
  28.560  978.497
  28.580  938.417
  28.600  696.264
  28.620 1002.056
  28.640 1130.828
  28.660  668.743
  28.680  678.266
  28.700 1159.793
  28.720 1020.084
  28.740  981.551
  28.760 1134.562
  28.780  919.617
  28.800  722.076
  28.820 1030.231
  28.840  960.426
  28.860 1009.477
  28.880 1005.922
  28.900  806.507
  28.920  772.855
  28.940  700.513
  28.960  989.575
  28.980  766.928
  29.000  773.628
  29.020  817.499
  29.040 1044.798
  29.060  990.618
  29.080 1039.916
  29.100  602.048
  29.120  882.160
  29.140  865.739
  29.160  611.779
  29.180  992.411
  29.200  816.309
  29.220  611.782
  29.240  800.224
  29.260  869.446
  29.280  619.559
  29.300  823.751
  29.320  712.738
  29.340  921.594
  29.360  560.400
  29.380  878.479
  29.400  883.179
  29.420  968.754
  29.440  974.825
  29.460  811.993
  29.480  830.889
  29.500  574.793
  29.520  678.518
  29.540  817.511
  29.560  576.744
  29.580  581.609
  29.600  720.521
  29.620  991.164
  29.640 1110.768
  29.660 1071.338
  29.680  806.157
  29.700  998.412
  29.720 1186.988
  29.740 1013.124
  29.760 1073.553
  29.780 1319.181
  29.800  969.761
  29.820 1323.315
  29.840  988.949
  29.860 1375.397
  29.880 1056.815
  29.900 1463.379
  29.920 1193.182
  29.940 1655.007
  29.960 1335.483
  29.980 1691.344
  30.000 1509.498
  30.020 1529.247
  30.040 1437.519
  30.060 1593.109
  30.080 1473.883
  30.100 1414.384
  30.120 1440.104
  30.140 1335.014
  30.160 1259.077
  30.180 1275.233
  30.200 1098.088
  30.220 1047.020
  30.240  930.132
  30.260  963.665
  30.280  964.366
  30.300  890.033
  30.320 1076.383
  30.340  850.966
  30.360  704.818
  30.380 1018.433
  30.400  684.036
  30.420 1007.686
  30.440  711.289
  30.460  882.107
  30.480  645.405
  30.500  889.948
  30.520  599.827
  30.540  808.928
  30.560  695.197
  30.580  511.837
  30.600  866.846
  30.620  815.851
  30.640  956.366
  30.660  620.184
  30.680  655.622
  30.700  616.738
  30.720  674.543
  30.740  585.617
  30.760  758.892
  30.780  806.168
  30.800  849.526
  30.820  692.954
  30.840  724.870
  30.860  627.536
  30.880  867.076
  30.900  589.363
  30.920  562.411
  30.940  814.287
  30.960  935.089
  30.980  951.213
  31.000  834.917
  31.020  582.919
  31.040  885.501
  31.060 1029.022
  31.080  786.223
  31.100  852.274
  31.120 1201.359
  31.140 1186.622
  31.160  816.844
  31.180 1231.180
  31.200 1177.866
  31.220  990.284
  31.240 1019.505
  31.260 1225.509
  31.280 1157.685
  31.300 1570.841
  31.320 1341.748
  31.340 1561.537
  31.360 1253.737
  31.380 1343.531
  31.400 1754.570
  31.420 1521.010
  31.440 1802.253
  31.460 1643.326
  31.480 1608.303
  31.500 1455.358
  31.520 1373.491
  31.540 1585.169
  31.560 1521.366
  31.580 1471.497
  31.600 1280.349
  31.620 1277.615
  31.640 1462.941
  31.660 1500.768
  31.680 1290.658
  31.700 1492.612
  31.720 1410.635
  31.740 1615.937
  31.760 1419.008
  31.780 1471.415
  31.800 1427.237
  31.820 1455.872
  31.840 1386.945
  31.860 1120.546
  31.880 1029.464
  31.900 1001.642
  31.920 1384.493
  31.940 1021.754
  31.960 1067.263
  31.980 1224.005
  32.000  913.408
  32.020  966.846
  32.040  800.250
  32.060 1229.164
  32.080  806.234
  32.100  848.050
  32.120 1367.206
  32.140  913.497
  32.160 1335.351
  32.180 1423.536
  32.200 1065.316
  32.220 1100.641
  32.240 1056.128
  32.260  963.731
  32.280 1032.819
  32.300  887.256
  32.320 1243.249
  32.340 1120.685
  32.360 1026.274
  32.380  752.674
  32.400 1076.561
  32.420  776.607
  32.440 1055.651
  32.460  799.189
  32.480  713.796
  32.500  973.045
  32.520  568.871
  32.540  542.919
  32.560  914.245
  32.580  812.964
  32.600  532.323
  32.620  771.295
  32.640  712.549
  32.660  561.707
  32.680  669.058
  32.700  683.551
  32.720  709.437
  32.740  598.487
  32.760  648.488
  32.780  663.295
  32.800  750.018
  32.820  602.076
  32.840  447.994
  32.860  957.872
  32.880  517.947
  32.900  778.451
  32.920  776.290
  32.940  625.359
  32.960  828.368
  32.980  975.444
  33.000  604.611
  33.020  868.348
  33.040  460.489
  33.060  655.665
  33.080  708.093
  33.100  925.277
  33.120  887.933
  33.140  567.374
  33.160  811.321
  33.180  710.706
  33.200  759.398
  33.220  480.237
  33.240  630.093
  33.260  819.031
  33.280  917.728
  33.300  789.902
  33.320  690.820
  33.340  670.605
  33.360  388.901
  33.380  378.195
  33.400  729.221
  33.420  779.203
  33.440  486.179
  33.460  437.689
  33.480  645.842
  33.500  898.464
  33.520  865.006
  33.540  662.368
  33.560  588.133
  33.580  795.626
  33.600  561.437
  33.620  423.459
  33.640  545.494
  33.660  706.786
  33.680  872.347
  33.700  764.927
  33.720  936.382
  33.740  826.385
  33.760  488.060
  33.780  923.140
  33.800  732.757
  33.820  793.222
  33.840  888.268
  33.860  896.642
  33.880  703.258
  33.900  790.997
  33.920  897.114
  33.940  567.390
  33.960  752.397
  33.980  918.004
  34.000  539.644
  34.020  590.616
  34.040  704.275
  34.060  704.458
  34.080  712.644
  34.100  474.262
  34.120  797.057
  34.140  818.698
  34.160  524.673
  34.180  517.498
  34.200  713.365
  34.220  874.911
  34.240  840.193
  34.260  633.644
  34.280  646.570
  34.300  545.417
  34.320  965.911
  34.340  652.291
  34.360  782.232
  34.380  910.190
  34.400 1002.256
  34.420  883.160
  34.440  812.935
  34.460  776.174
  34.480  647.214
  34.500 1024.900
  34.520  775.106
  34.540  877.910
  34.560 1120.760
  34.580 1286.242
  34.600 1109.346
  34.620 1363.896
  34.640 1345.400
  34.660 1388.046
  34.680 1396.633
  34.700 1379.027
  34.720 1311.766
  34.740 1724.243
  34.760 1466.259
  34.780 1551.254
  34.800 1497.959
  34.820 1750.259
  34.840 1462.311
  34.860 1622.722
  34.880 1723.929
  34.900 1521.817
  34.920 1805.164
  34.940 2096.399
  34.960 2096.466
  34.980 1778.223
  35.000 1816.043
  35.020 2366.035
  35.040 2564.189
  35.060 2499.466
  35.080 2425.570
  35.100 2664.538
  35.120 2647.081
  35.140 2778.422
  35.160 2691.740
  35.180 2725.711
  35.200 2841.832
  35.220 2673.498
  35.240 2726.462
  35.260 2670.709
  35.280 2501.384
  35.300 1912.816
  35.320 2015.249
  35.340 1861.735
  35.360 1424.012
  35.380 1367.166
  35.400 1560.266
  35.420 1392.377
  35.440  964.629
  35.460  975.522
  35.480 1128.176
  35.500 1157.249
  35.520  949.256
  35.540 1086.767
  35.560 1059.268
  35.580  939.062
  35.600 1107.718
  35.620  796.405
  35.640  723.228
  35.660 1045.451
  35.680 1019.440
  35.700  666.495
  35.720 1055.481
  35.740  955.773
  35.760  543.325
  35.780 1010.268
  35.800  920.697
  35.820  719.979
  35.840  547.314
  35.860  589.059
  35.880  996.596
  35.900  987.147
  35.920  904.090
  35.940  891.084
  35.960  880.910
  35.980  725.913
  36.000  965.310
  36.020  684.868
  36.040  587.712
  36.060  747.322
  36.080  597.078
  36.100 1038.908
  36.120  574.735
  36.140  647.734
  36.160  666.943
  36.180  717.549
  36.200  710.263
  36.220  827.816
  36.240  679.282
  36.260  768.398
  36.280  601.422
  36.300  985.865
  36.320  699.462
  36.340  908.109
  36.360  618.197
  36.380  762.713
  36.400  623.737
  36.420  697.079
  36.440  825.636
  36.460  712.825
  36.480  706.336
  36.500  951.086
  36.520 1236.279
  36.540  764.170
  36.560  846.770
  36.580 1324.234
  36.600 1320.271
  36.620 1035.429
  36.640 1303.031
  36.660 1091.693
  36.680 1274.220
  36.700 1149.344
  36.720 1096.573
  36.740 1238.694
  36.760 1206.875
  36.780  841.625
  36.800 1208.363
  36.820  870.843
  36.840 1110.220
  36.860  829.213
  36.880 1125.570
  36.900 1120.131
  36.920 1027.575
  36.940  788.890
  36.960 1183.485
  36.980  904.362
  37.000  720.578
  37.020  927.313
  37.040  939.831
  37.060  815.312
  37.080 1074.424
  37.100 1019.730
  37.120  761.032
  37.140  768.148
  37.160  992.367
  37.180  851.485
  37.200  727.538
  37.220  870.611
  37.240  894.269
  37.260  989.832
  37.280  623.364
  37.300  786.868
  37.320  884.905
  37.340  591.524
  37.360  674.118
  37.380  898.790
  37.400  566.028
  37.420  580.528
  37.440  839.994
  37.460  841.763
  37.480 1077.313
  37.500 1110.133
  37.520  669.772
  37.540  654.036
  37.560 1059.810
  37.580  888.177
  37.600 1039.517
  37.620  705.577
  37.640  987.020
  37.660  813.949
  37.680  789.583
  37.700 1196.848
  37.720  912.520
  37.740 1027.370
  37.760  920.811
  37.780  950.113
  37.800 1013.758
  37.820 1191.802
  37.840  964.891
  37.860 1240.016
  37.880 1013.440
  37.900 1399.489
  37.920 1312.021
  37.940 1304.724
  37.960 1125.920
  37.980 1174.628
  38.000 1343.467
  38.020 1175.568
  38.040 1257.577
  38.060 1241.095
  38.080 1327.894
  38.100  965.155
  38.120 1070.916
  38.140 1159.662
  38.160 1158.886
  38.180  944.255
  38.200 1071.861
  38.220  636.906
  38.240  818.657
  38.260  731.772
  38.280  589.432
  38.300  622.855
  38.320  523.216
  38.340  833.680
  38.360 1022.669
  38.380  829.331
  38.400  551.310
  38.420  945.114
  38.440  879.328
  38.460  508.637
  38.480  765.710
  38.500  721.064
  38.520  928.928
  38.540  673.152
  38.560  600.620
  38.580  580.768
  38.600  801.960
  38.620  449.100
  38.640  749.487
  38.660  887.009
  38.680  697.308
  38.700  850.766
  38.720  385.322
  38.740  398.048
  38.760  695.924
  38.780  796.194
  38.800  434.418
  38.820  665.708
  38.840  678.166
  38.860  406.063
  38.880  619.619
  38.900  575.331
  38.920  710.479
  38.940  455.104
  38.960  634.838
  38.980  648.404
  39.000  730.546
  39.020  733.916
  39.040  478.892
  39.060  734.521
  39.080  458.013
  39.100  469.141
  39.120  342.419
  39.140  602.226
  39.160  704.219
  39.180  466.869
  39.200  402.308
  39.220  389.870
  39.240  814.252
  39.260  480.043
  39.280  791.573
  39.300  424.697
  39.320  899.814
  39.340  814.195
  39.360  622.392
  39.380  737.062
  39.400  804.155
  39.420  452.125
  39.440  359.961
  39.460  707.172
  39.480  505.006
  39.500  349.130
  39.520  425.275
  39.540  649.039
  39.560  360.532
  39.580  401.755
  39.600  614.887
  39.620  855.020
  39.640  845.769
  39.660  396.962
  39.680  652.349
  39.700  633.861
  39.720  736.716
  39.740  717.691
  39.760  532.021
  39.780  445.015
  39.800  561.116
  39.820  552.142
  39.840  644.220
  39.860  400.950
  39.880  450.942
  39.900  547.510
  39.920  627.107
  39.940  691.298
  39.960  424.600
  39.980  479.681
  40.000  625.504
  40.020  672.770
  40.040  437.185
  40.060  619.234
  40.080  785.697
  40.100  802.506
  40.120  678.084
  40.140  943.688
  40.160  842.509
  40.180 1056.284
  40.200  882.600
  40.220 1019.954
  40.240  899.786
  40.260  795.456
  40.280  724.807
  40.300 1034.090
  40.320  710.400
  40.340  705.761
  40.360  636.457
  40.380 1080.556
  40.400  596.209
  40.420  752.775
  40.440  738.087
  40.460  580.646
  40.480  836.709
  40.500 1050.814
  40.520  799.491
  40.540  736.790
  40.560 1028.540
  40.580  965.436
  40.600  894.280
  40.620  625.939
  40.640  845.836
  40.660  835.715
  40.680  840.863
  40.700  548.721
  40.720  938.988
  40.740  841.238
  40.760  799.295
  40.780  922.227
  40.800  971.249
  40.820  614.429
  40.840  939.805
  40.860  947.772
  40.880 1052.787
  40.900 1015.739
  40.920 1046.294
  40.940 1069.525
  40.960  852.072
  40.980 1123.244
  41.000  672.330
  41.020  708.013
  41.040 1005.548
  41.060  849.805
  41.080  927.633
  41.100 1055.019
  41.120 1095.627
  41.140  841.914
  41.160  795.955
  41.180  952.013
  41.200  702.600
  41.220 1030.189
  41.240 1020.356
  41.260  654.717
  41.280  861.912
  41.300  817.216
  41.320  685.397
  41.340  734.979
  41.360  888.626
  41.380  768.651
  41.400  621.098
  41.420  660.853
  41.440 1033.394
  41.460  549.669
  41.480  779.847
  41.500  647.803
  41.520  607.450
  41.540  519.117
  41.560  699.162
  41.580  530.902
  41.600  892.001
  41.620  493.621
  41.640  474.895
  41.660  701.491
  41.680  790.146
  41.700  487.085
  41.720  789.970
  41.740  843.139
  41.760  611.028
  41.780  870.561
  41.800  611.519
  41.820  587.988
  41.840  943.320
  41.860  433.398
  41.880  781.659
  41.900  719.157
  41.920  894.523
  41.940  642.284
  41.960  758.612
  41.980  573.385
  42.000  711.628
  42.020  692.946
  42.040  551.686
  42.060  905.539
  42.080  950.582
  42.100 1056.748
  42.120  951.271
  42.140  762.459
  42.160 1010.076
  42.180  873.039
  42.200 1062.404
  42.220  783.278
  42.240  809.287
  42.260 1097.909
  42.280  971.840
  42.300  958.730
  42.320 1095.268
  42.340 1151.719
  42.360  887.548
  42.380  882.536
  42.400  785.247
  42.420  977.743
  42.440 1031.205
  42.460  854.848
  42.480 1035.392
  42.500 1043.214
  42.520 1171.748
  42.540  893.513
  42.560 1149.842
  42.580 1070.014
  42.600 1221.386
  42.620 1067.468
  42.640  778.494
  42.660  979.246
  42.680  883.954
  42.700 1128.445
  42.720 1071.015
  42.740  758.840
  42.760  941.372
  42.780  978.035
  42.800  761.697
  42.820  601.408
  42.840  858.622
  42.860  509.921
  42.880  882.401
  42.900  619.183
  42.920  800.951
  42.940  702.142
  42.960  589.731
  42.980  741.210
  43.000  753.326
  43.020  812.986
  43.040  786.062
  43.060  417.393
  43.080  828.167
  43.100  750.141
  43.120  521.710
  43.140  540.005
  43.160  456.260
  43.180  635.389
  43.200  580.344
  43.220  700.854
  43.240  512.831
  43.260  551.456
  43.280  569.294
  43.300  472.904
  43.320  726.415
  43.340  481.874
  43.360  672.500
  43.380  673.956
  43.400  685.651
  43.420  674.502
  43.440  365.862
  43.460  618.017
  43.480  638.504
  43.500  565.872
  43.520  320.121
  43.540  599.624
  43.560  412.925
  43.580  398.882
  43.600  773.573
  43.620  465.171
  43.640  516.497
  43.660  480.468
  43.680  387.118
  43.700  442.255
  43.720  695.266
  43.740  661.623
  43.760  793.650
  43.780  804.436
  43.800  687.605
  43.820  652.427
  43.840  669.258
  43.860  669.078
  43.880  707.565
  43.900  694.301
  43.920  851.474
  43.940  779.655
  43.960  551.735
  43.980  449.039
  44.000  456.782
