Sample	
Comments	
Filename	C:\WINDMAX\DATA\USERS\GEO\GEO_ER~1\Pyrenees\BULKMA~1\2M1-std2.raw
Goniometer	Ultima IV In-plane
Attachment	Auto sample changer (10 samples)
ScanningMode	2Theta/Theta
ScanningType	Continuos Scanning
X-Ray	40kV/44mA
DivSlit	2/3deg.
DivH.L.Slit	10mm
SctSlit	2/3deg.
RecSlit	0.3mm
Start	16
Stop	44
Step	0.02
Speed	0.3
Offset	0
  16.000  570.962
  16.020  584.113
  16.040  453.160
  16.060  455.289
  16.080  672.563
  16.100  568.774
  16.120  814.980
  16.140  835.213
  16.160  837.417
  16.180  607.289
  16.200  836.933
  16.220  845.439
  16.240  763.373
  16.260  915.762
  16.280  730.384
  16.300  709.582
  16.320  793.208
  16.340  760.438
  16.360  683.020
  16.380  853.299
  16.400  809.502
  16.420  822.110
  16.440  720.163
  16.460  565.623
  16.480  501.763
  16.500  424.711
  16.520  633.519
  16.540  643.461
  16.560  498.144
  16.580  506.189
  16.600  584.625
  16.620  624.047
  16.640  738.534
  16.660  768.226
  16.680  800.924
  16.700  898.696
  16.720  743.153
  16.740  473.018
  16.760  831.876
  16.780  398.867
  16.800  886.608
  16.820  630.589
  16.840  818.426
  16.860  382.802
  16.880  879.058
  16.900  389.875
  16.920  773.151
  16.940  473.422
  16.960  431.592
  16.980  827.149
  17.000  482.055
  17.020  792.536
  17.040  623.916
  17.060  515.949
  17.080  832.090
  17.100  682.153
  17.120  442.386
  17.140  533.278
  17.160  566.553
  17.180  656.664
  17.200  389.167
  17.220  479.439
  17.240  634.845
  17.260  688.459
  17.280  906.677
  17.300  535.261
  17.320  660.862
  17.340  524.584
  17.360  555.900
  17.380  810.786
  17.400  754.312
  17.420  552.168
  17.440  767.472
  17.460  746.124
  17.480  910.547
  17.500  893.477
  17.520  960.208
  17.540  652.418
  17.560  603.718
  17.580  737.166
  17.600  708.963
  17.620  617.105
  17.640  787.640
  17.660  704.746
  17.680  924.349
  17.700  928.690
  17.720  863.054
  17.740  922.685
  17.760 1157.056
  17.780 1177.231
  17.800  910.124
  17.820 1062.655
  17.840 1298.596
  17.860 1497.499
  17.880 1416.395
  17.900 1216.072
  17.920 1304.130
  17.940 1057.306
  17.960 1518.931
  17.980 1023.018
  18.000 1341.243
  18.020 1280.723
  18.040 1218.561
  18.060 1226.796
  18.080 1124.563
  18.100  946.955
  18.120 1356.206
  18.140  941.788
  18.160 1289.161
  18.180  848.581
  18.200  697.320
  18.220  739.793
  18.240  846.319
  18.260  641.339
  18.280  888.341
  18.300  664.162
  18.320  589.563
  18.340  708.293
  18.360  999.474
  18.380  770.540
  18.400  574.846
  18.420  944.974
  18.440  839.181
  18.460  584.712
  18.480  885.580
  18.500  552.336
  18.520  582.355
  18.540  972.592
  18.560  910.054
  18.580  537.452
  18.600  968.016
  18.620  754.093
  18.640  629.342
  18.660  577.543
  18.680  787.604
  18.700  967.270
  18.720  810.943
  18.740  584.282
  18.760  739.994
  18.780  696.470
  18.800  532.351
  18.820  767.430
  18.840  628.921
  18.860  919.771
  18.880  561.899
  18.900  705.765
  18.920  508.517
  18.940  498.790
  18.960  660.695
  18.980  701.151
  19.000  538.289
  19.020  600.391
  19.040  865.933
  19.060  771.263
  19.080  984.113
  19.100  559.707
  19.120  544.689
  19.140  489.182
  19.160  893.364
  19.180  814.519
  19.200  627.093
  19.220  963.799
  19.240  638.615
  19.260  591.707
  19.280  810.323
  19.300  700.354
  19.320  848.256
  19.340  559.146
  19.360  552.855
  19.380  818.635
  19.400  562.666
  19.420  530.266
  19.440  667.437
  19.460 1012.274
  19.480  811.263
  19.500  555.507
  19.520  734.113
  19.540  820.240
  19.560  881.634
  19.580  812.444
  19.600  891.461
  19.620 1058.267
  19.640  860.590
  19.660 1091.217
  19.680 1104.251
  19.700 1163.119
  19.720 1427.645
  19.740 1245.015
  19.760 1348.511
  19.780 1211.470
  19.800 1610.902
  19.820 1634.477
  19.840 1555.561
  19.860 2022.220
  19.880 1895.419
  19.900 2042.605
  19.920 2142.998
  19.940 2534.408
  19.960 2460.959
  19.980 2321.106
  20.000 2593.955
  20.020 2867.802
  20.040 2647.507
  20.060 2611.264
  20.080 2259.600
  20.100 2398.868
  20.120 2007.190
  20.140 1953.044
  20.160 1959.961
  20.180 1479.557
  20.200 1390.835
  20.220 1175.484
  20.240 1286.829
  20.260 1166.764
  20.280 1243.409
  20.300 1381.381
  20.320 1063.936
  20.340 1216.939
  20.360 1281.199
  20.380  974.053
  20.400 1062.630
  20.420 1153.676
  20.440 1220.132
  20.460  978.466
  20.480 1023.500
  20.500  848.422
  20.520  765.543
  20.540 1024.066
  20.560 1027.602
  20.580 1146.770
  20.600  945.099
  20.620 1182.681
  20.640  935.836
  20.660  826.307
  20.680 1052.621
  20.700 1364.081
  20.720  926.446
  20.740 1153.752
  20.760 1183.179
  20.780 1465.617
  20.800 1383.251
  20.820 1059.824
  20.840 1373.833
  20.860 1002.890
  20.880  860.484
  20.900 1244.940
  20.920 1253.468
  20.940  958.474
  20.960  927.692
  20.980 1091.010
  21.000  754.830
  21.020 1016.428
  21.040  917.755
  21.060  907.370
  21.080 1027.336
  21.100  771.286
  21.120  848.779
  21.140  558.955
  21.160  809.168
  21.180  547.870
  21.200  770.649
  21.220  888.563
  21.240  645.889
  21.260  841.497
  21.280  760.521
  21.300  939.946
  21.320  972.376
  21.340  856.580
  21.360 1071.117
  21.380  910.264
  21.400  626.312
  21.420  991.766
  21.440  881.662
  21.460  615.580
  21.480 1029.154
  21.500 1095.258
  21.520  868.593
  21.540 1032.376
  21.560  946.057
  21.580 1164.482
  21.600  915.583
  21.620  942.530
  21.640 1054.919
  21.660 1217.814
  21.680 1183.982
  21.700 1271.654
  21.720 1031.723
  21.740 1074.031
  21.760 1329.061
  21.780 1064.185
  21.800 1066.214
  21.820 1137.870
  21.840  912.718
  21.860 1071.631
  21.880  981.654
  21.900 1158.285
  21.920  935.909
  21.940 1056.532
  21.960  925.960
  21.980 1095.967
  22.000 1032.511
  22.020  951.964
  22.040  573.545
  22.060  755.844
  22.080  802.584
  22.100  653.903
  22.120  615.538
  22.140  746.824
  22.160  783.235
  22.180  629.387
  22.200  549.004
  22.220  580.661
  22.240  913.216
  22.260 1023.052
  22.280  908.644
  22.300 1014.054
  22.320 1046.340
  22.340  844.281
  22.360  626.640
  22.380  804.496
  22.400  743.660
  22.420  750.058
  22.440  988.881
  22.460  716.996
  22.480  749.376
  22.500  667.090
  22.520  727.017
  22.540 1019.955
  22.560 1006.411
  22.580 1118.935
  22.600 1165.335
  22.620  786.873
  22.640  911.370
  22.660 1077.922
  22.680 1041.368
  22.700  971.342
  22.720  706.432
  22.740 1064.768
  22.760 1236.316
  22.780  798.260
  22.800  911.447
  22.820 1296.522
  22.840 1322.727
  22.860 1081.089
  22.880 1427.145
  22.900 1294.275
  22.920 1337.764
  22.940 1143.568
  22.960 1176.772
  22.980 1534.043
  23.000 1566.395
  23.020 1378.466
  23.040 1549.593
  23.060 1909.120
  23.080 1624.590
  23.100 1506.933
  23.120 1494.256
  23.140 1295.128
  23.160 1459.144
  23.180 1360.317
  23.200 1094.842
  23.220 1251.354
  23.240 1404.048
  23.260 1280.105
  23.280 1296.389
  23.300  982.505
  23.320  772.104
  23.340 1122.815
  23.360 1070.420
  23.380  889.888
  23.400  971.466
  23.420  970.826
  23.440  805.474
  23.460  892.354
  23.480  782.025
  23.500  798.942
  23.520  946.865
  23.540 1072.211
  23.560  711.826
  23.580  845.249
  23.600  863.080
  23.620  833.296
  23.640 1180.696
  23.660 1101.224
  23.680  740.340
  23.700 1216.097
  23.720  859.088
  23.740  853.888
  23.760 1215.172
  23.780 1332.572
  23.800 1290.430
  23.820 1094.803
  23.840 1514.961
  23.860 1458.928
  23.880 1399.457
  23.900 1423.921
  23.920 1431.896
  23.940 1443.187
  23.960 1476.168
  23.980 1641.678
  24.000 1649.771
  24.020 1501.305
  24.040 1558.143
  24.060 1668.096
  24.080 1621.849
  24.100 1362.407
  24.120 1223.544
  24.140 1299.322
  24.160 1461.227
  24.180 1553.452
  24.200 1478.253
  24.220 1175.885
  24.240 1244.865
  24.260 1311.534
  24.280 1229.802
  24.300 1093.936
  24.320  895.654
  24.340 1236.114
  24.360 1129.262
  24.380 1108.391
  24.400  768.448
  24.420  862.479
  24.440 1092.436
  24.460  947.204
  24.480 1087.728
  24.500  752.463
  24.520 1120.542
  24.540  596.020
  24.560  989.815
  24.580  683.038
  24.600  862.426
  24.620  770.667
  24.640  782.810
  24.660  670.559
  24.680 1030.457
  24.700  585.185
  24.720  830.134
  24.740 1063.774
  24.760 1039.856
  24.780  875.671
  24.800  769.999
  24.820 1067.696
  24.840  716.417
  24.860  669.153
  24.880  879.007
  24.900 1014.085
  24.920 1076.270
  24.940 1099.338
  24.960  969.980
  24.980  996.944
  25.000 1064.909
  25.020 1131.929
  25.040  945.884
  25.060 1207.658
  25.080 1082.745
  25.100 1047.158
  25.120  745.335
  25.140  928.963
  25.160  862.604
  25.180 1076.237
  25.200 1119.925
  25.220 1326.484
  25.240 1150.837
  25.260 1246.295
  25.280 1052.789
  25.300  939.125
  25.320  947.559
  25.340 1459.332
  25.360  965.123
  25.380 1284.006
  25.400 1362.560
  25.420 1408.727
  25.440 1154.112
  25.460 1400.044
  25.480 1236.871
  25.500 1233.680
  25.520 1455.411
  25.540 1630.733
  25.560 1364.731
  25.580 1405.612
  25.600 1661.728
  25.620 1479.023
  25.640 1695.472
  25.660 1760.119
  25.680 1528.475
  25.700 1729.267
  25.720 1566.411
  25.740 1416.439
  25.760 1487.884
  25.780 1146.816
  25.800 1465.108
  25.820 1220.692
  25.840  916.602
  25.860 1372.354
  25.880  922.341
  25.900  963.661
  25.920 1072.019
  25.940 1098.722
  25.960  998.588
  25.980  688.988
  26.000 1163.184
  26.020  781.317
  26.040  900.950
  26.060 1109.156
  26.080 1112.401
  26.100 1125.360
  26.120 1115.107
  26.140  803.586
  26.160  617.551
  26.180  781.905
  26.200  837.920
  26.220  941.404
  26.240  709.592
  26.260 1099.017
  26.280  919.183
  26.300  699.599
  26.320  935.885
  26.340 1066.324
  26.360 1198.056
  26.380  732.624
  26.400  778.099
  26.420 1145.586
  26.440  791.997
  26.460  891.340
  26.480 1022.707
  26.500 1392.254
  26.520 1219.631
  26.540 1233.229
  26.560 1160.947
  26.580 1509.328
  26.600 1659.881
  26.620 1613.507
  26.640 1480.978
  26.660 1744.163
  26.680 1834.548
  26.700 1724.235
  26.720 1769.355
  26.740 2258.217
  26.760 1924.221
  26.780 2120.905
  26.800 2083.330
  26.820 2390.131
  26.840 2573.571
  26.860 2652.173
  26.880 2567.847
  26.900 2599.015
  26.920 2334.132
  26.940 2178.514
  26.960 2276.768
  26.980 2153.603
  27.000 2135.420
  27.020 1676.949
  27.040 1570.087
  27.060 1477.869
  27.080 1482.856
  27.100 1241.273
  27.120 1208.149
  27.140 1434.132
  27.160 1369.864
  27.180  969.547
  27.200  983.016
  27.220  924.566
  27.240  892.366
  27.260 1153.385
  27.280 1052.122
  27.300 1130.540
  27.320  793.449
  27.340  811.216
  27.360  750.450
  27.380  787.469
  27.400  769.399
  27.420  779.869
  27.440  949.823
  27.460  860.880
  27.480  836.450
  27.500  793.831
  27.520 1102.295
  27.540  676.765
  27.560 1164.218
  27.580 1130.709
  27.600  932.996
  27.620 1029.212
  27.640 1059.970
  27.660  764.029
  27.680  889.244
  27.700 1114.138
  27.720  979.427
  27.740  861.521
  27.760  812.131
  27.780  957.429
  27.800 1391.860
  27.820 1005.544
  27.840 1364.291
  27.860 1165.875
  27.880 1484.145
  27.900 1479.180
  27.920 1262.810
  27.940 1753.764
  27.960 1826.223
  27.980 1796.317
  28.000 1776.826
  28.020 1676.542
  28.040 1871.582
  28.060 1655.448
  28.080 1835.104
  28.100 1524.513
  28.120 1250.246
  28.140 1535.887
  28.160 1471.080
  28.180 1497.552
  28.200 1427.438
  28.220  934.617
  28.240  886.525
  28.260 1306.704
  28.280 1107.446
  28.300  820.499
  28.320 1096.039
  28.340  925.765
  28.360  803.270
  28.380 1041.645
  28.400  921.156
  28.420  863.863
  28.440  811.262
  28.460  862.648
  28.480 1087.872
  28.500  854.373
  28.520  957.871
  28.540  738.768
  28.560  650.631
  28.580 1040.799
  28.600  736.547
  28.620  794.229
  28.640  884.138
  28.660  709.046
  28.680  893.583
  28.700  735.095
  28.720  738.302
  28.740  676.925
  28.760 1091.727
  28.780  825.678
  28.800  699.294
  28.820  719.859
  28.840  903.814
  28.860  643.925
  28.880  864.033
  28.900  663.190
  28.920  611.110
  28.940  697.065
  28.960  726.160
  28.980 1030.795
  29.000  843.265
  29.020 1049.271
  29.040  811.303
  29.060  943.635
  29.080  631.946
  29.100  734.929
  29.120  956.751
  29.140  612.856
  29.160 1034.219
  29.180  967.644
  29.200  697.220
  29.220  670.418
  29.240  626.148
  29.260  959.878
  29.280  851.674
  29.300  829.147
  29.320  885.782
  29.340  797.063
  29.360 1027.358
  29.380  543.682
  29.400  521.291
  29.420  487.910
  29.440  498.828
  29.460  616.591
  29.480  752.515
  29.500  506.075
  29.520  718.394
  29.540  962.560
  29.560 1018.528
  29.580  834.898
  29.600  738.808
  29.620  963.617
  29.640  804.931
  29.660  984.605
  29.680  951.560
  29.700  744.666
  29.720  797.892
  29.740  886.451
  29.760 1095.520
  29.780  852.672
  29.800  841.760
  29.820 1352.778
  29.840 1027.238
  29.860  986.600
  29.880 1326.562
  29.900 1266.436
  29.920 1662.314
  29.940 1532.597
  29.960 1439.593
  29.980 1480.189
  30.000 1447.222
  30.020 1792.426
  30.040 1470.196
  30.060 1615.255
  30.080 1532.881
  30.100 1609.465
  30.120 1590.651
  30.140 1505.680
  30.160 1147.693
  30.180 1338.710
  30.200 1277.389
  30.220 1033.049
  30.240  902.500
  30.260 1243.558
  30.280 1170.090
  30.300 1127.224
  30.320  889.833
  30.340  636.588
  30.360  625.052
  30.380 1046.254
  30.400  701.865
  30.420  904.010
  30.440  900.168
  30.460  774.925
  30.480  911.853
  30.500  969.251
  30.520  970.669
  30.540  924.660
  30.560  611.297
  30.580  571.712
  30.600  587.184
  30.620  731.332
  30.640  748.115
  30.660  502.700
  30.680  945.200
  30.700  480.475
  30.720  903.967
  30.740  739.237
  30.760  776.458
  30.780  862.181
  30.800  663.208
  30.820  771.080
  30.840  735.526
  30.860  629.484
  30.880  827.054
  30.900  950.402
  30.920  639.630
  30.940  611.652
  30.960  797.783
  30.980  650.184
  31.000  842.442
  31.020  854.587
  31.040 1067.893
  31.060  909.382
  31.080 1052.961
  31.100 1029.834
  31.120  910.895
  31.140  858.517
  31.160 1038.218
  31.180  959.429
  31.200 1288.967
  31.220 1136.324
  31.240 1330.083
  31.260 1275.965
  31.280 1329.149
  31.300 1365.407
  31.320 1373.396
  31.340 1297.735
  31.360 1351.262
  31.380 1744.692
  31.400 1450.862
  31.420 1342.784
  31.440 1731.063
  31.460 1565.628
  31.480 1687.813
  31.500 1640.407
  31.520 1216.826
  31.540 1272.960
  31.560 1502.802
  31.580 1354.535
  31.600 1610.039
  31.620 1497.718
  31.640 1377.296
  31.660 1269.343
  31.680 1348.332
  31.700 1241.969
  31.720 1256.462
  31.740 1645.793
  31.760 1265.614
  31.780 1613.460
  31.800 1176.707
  31.820 1470.798
  31.840 1261.764
  31.860 1097.084
  31.880 1274.942
  31.900  982.581
  31.920 1114.865
  31.940 1381.071
  31.960 1030.192
  31.980  867.246
  32.000  979.929
  32.020 1075.998
  32.040 1107.530
  32.060 1030.644
  32.080 1092.682
  32.100 1137.026
  32.120 1339.959
  32.140  985.173
  32.160 1229.448
  32.180 1172.639
  32.200 1363.701
  32.220 1354.644
  32.240  954.058
  32.260 1127.475
  32.280  887.009
  32.300 1175.313
  32.320 1211.530
  32.340  829.201
  32.360  905.833
  32.380  666.581
  32.400  729.828
  32.420  832.514
  32.440  711.705
  32.460  963.520
  32.480  550.152
  32.500  507.637
  32.520  699.959
  32.540  524.906
  32.560  642.148
  32.580  544.654
  32.600  928.153
  32.620  918.122
  32.640  914.689
  32.660  467.095
  32.680  774.377
  32.700  743.145
  32.720  560.384
  32.740  854.618
  32.760  601.492
  32.780  631.877
  32.800  618.551
  32.820  862.277
  32.840  810.839
  32.860  602.380
  32.880  663.101
  32.900  549.332
  32.920  573.560
  32.940  797.222
  32.960  670.783
  32.980  791.307
  33.000  771.438
  33.020  858.281
  33.040  576.320
  33.060  822.330
  33.080  445.888
  33.100  439.071
  33.120  824.201
  33.140  868.957
  33.160  866.432
  33.180  481.368
  33.200  798.811
  33.220  627.888
  33.240  409.822
  33.260  783.515
  33.280  547.983
  33.300  855.410
  33.320  711.454
  33.340  618.763
  33.360  417.634
  33.380  651.215
  33.400  390.630
  33.420  888.474
  33.440  465.142
  33.460  728.919
  33.480  624.378
  33.500  680.256
  33.520  824.482
  33.540  681.105
  33.560  818.676
  33.580  406.377
  33.600  799.480
  33.620  847.749
  33.640  873.519
  33.660  518.095
  33.680  803.766
  33.700  446.774
  33.720  690.557
  33.740  466.662
  33.760  737.131
  33.780  674.595
  33.800  497.603
  33.820  496.419
  33.840  647.511
  33.860  779.382
  33.880  652.299
  33.900  534.086
  33.920  530.049
  33.940  865.605
  33.960  652.469
  33.980  764.965
  34.000  581.141
  34.020  928.137
  34.040  483.628
  34.060  795.462
  34.080  745.170
  34.100  695.701
  34.120  932.978
  34.140  965.940
  34.160  721.944
  34.180  847.480
  34.200  588.332
  34.220  819.655
  34.240  848.426
  34.260  851.345
  34.280  672.358
  34.300  734.086
  34.320  828.324
  34.340  630.014
  34.360  851.510
  34.380  952.069
  34.400  744.953
  34.420  568.948
  34.440 1037.648
  34.460  808.637
  34.480  728.978
  34.500  902.562
  34.520  698.074
  34.540 1123.433
  34.560 1137.314
  34.580  955.598
  34.600 1194.586
  34.620 1246.360
  34.640 1471.250
  34.660 1625.940
  34.680 1557.440
  34.700 1532.858
  34.720 1415.494
  34.740 1551.389
  34.760 1523.691
  34.780 1890.144
  34.800 1561.744
  34.820 1631.114
  34.840 1647.920
  34.860 1858.495
  34.880 1505.162
  34.900 2027.518
  34.920 1712.177
  34.940 1686.699
  34.960 2123.498
  34.980 2265.749
  35.000 2216.054
  35.020 2174.464
  35.040 2539.739
  35.060 2328.911
  35.080 2754.180
  35.100 2509.303
  35.120 2884.655
  35.140 2799.331
  35.160 2639.784
  35.180 2812.333
  35.200 2941.211
  35.220 2565.133
  35.240 2691.069
  35.260 2546.448
  35.280 2203.762
  35.300 2331.338
  35.320 1697.327
  35.340 1638.196
  35.360 1524.808
  35.380 1316.201
  35.400 1540.036
  35.420 1500.506
  35.440 1077.997
  35.460 1039.939
  35.480  773.601
  35.500  861.854
  35.520  754.155
  35.540  982.568
  35.560  624.138
  35.580  695.232
  35.600  954.898
  35.620  768.197
  35.640 1048.635
  35.660  934.473
  35.680  765.783
  35.700 1038.275
  35.720  762.517
  35.740  795.983
  35.760  547.564
  35.780  961.212
  35.800  558.099
  35.820 1008.593
  35.840  744.008
  35.860 1013.249
  35.880 1016.839
  35.900  978.247
  35.920  947.806
  35.940  832.441
  35.960  837.124
  35.980  763.037
  36.000  788.257
  36.020  616.558
  36.040 1037.972
  36.060  959.830
  36.080  765.220
  36.100  800.819
  36.120  901.811
  36.140  729.133
  36.160 1061.625
  36.180  704.404
  36.200  923.160
  36.220 1105.394
  36.240  575.246
  36.260  604.780
  36.280  952.300
  36.300  719.893
  36.320  653.249
  36.340  707.241
  36.360  969.793
  36.380  737.334
  36.400  845.561
  36.420  823.153
  36.440  916.822
  36.460  967.064
  36.480  857.467
  36.500 1013.804
  36.520  896.649
  36.540 1090.731
  36.560 1250.613
  36.580 1048.811
  36.600 1082.623
  36.620  909.402
  36.640 1212.447
  36.660  903.053
  36.680 1180.855
  36.700 1026.299
  36.720 1043.564
  36.740  966.014
  36.760 1136.495
  36.780 1173.261
  36.800 1076.136
  36.820 1188.209
  36.840  869.381
  36.860 1157.161
  36.880  817.714
  36.900 1022.486
  36.920  915.117
  36.940 1149.067
  36.960 1116.330
  36.980  806.784
  37.000 1114.215
  37.020  725.638
  37.040  636.395
  37.060  959.859
  37.080  671.490
  37.100  977.748
  37.120  672.827
  37.140  579.344
  37.160  864.099
  37.180  931.241
  37.200  784.944
  37.220  785.173
  37.240  564.297
  37.260  603.495
  37.280  654.992
  37.300  727.863
  37.320  867.512
  37.340  510.913
  37.360  985.610
  37.380  685.251
  37.400  731.243
  37.420  968.701
  37.440  539.940
  37.460  825.362
  37.480  908.128
  37.500  816.080
  37.520 1006.624
  37.540  970.127
  37.560  732.401
  37.580 1014.853
  37.600 1035.871
  37.620  724.176
  37.640 1242.535
  37.660 1047.125
  37.680 1240.094
  37.700  827.129
  37.720  889.656
  37.740 1068.799
  37.760 1308.678
  37.780  962.453
  37.800 1334.217
  37.820 1113.093
  37.840 1169.892
  37.860 1061.529
  37.880 1030.486
  37.900 1396.853
  37.920 1052.052
  37.940 1152.350
  37.960  986.045
  37.980 1086.911
  38.000 1083.622
  38.020 1199.454
  38.040 1089.715
  38.060 1083.716
  38.080 1196.530
  38.100  783.111
  38.120  942.725
  38.140 1155.446
  38.160  847.465
  38.180  808.826
  38.200  887.832
  38.220  674.776
  38.240  953.612
  38.260  732.083
  38.280 1036.461
  38.300  998.303
  38.320  946.077
  38.340  800.077
  38.360  740.826
  38.380  565.950
  38.400  723.574
  38.420  715.897
  38.440  815.928
  38.460  574.974
  38.480  735.475
  38.500  483.608
  38.520  607.163
  38.540  834.816
  38.560  906.767
  38.580  551.000
  38.600  407.594
  38.620  796.696
  38.640  393.600
  38.660  574.544
  38.680  441.982
  38.700  573.230
  38.720  390.785
  38.740  484.884
  38.760  567.520
  38.780  633.172
  38.800  731.860
  38.820  635.982
  38.840  528.840
  38.860  451.666
  38.880  714.580
  38.900  528.680
  38.920  482.336
  38.940  600.435
  38.960  485.359
  38.980  443.883
  39.000  660.312
  39.020  841.779
  39.040  612.156
  39.060  855.011
  39.080  685.823
  39.100  326.517
  39.120  553.325
  39.140  391.684
  39.160  485.648
  39.180  546.381
  39.200  593.530
  39.220  842.302
  39.240  510.857
  39.260  382.532
  39.280  564.925
  39.300  533.918
  39.320  631.234
  39.340  630.165
  39.360  732.175
  39.380  799.424
  39.400  798.887
  39.420  755.622
  39.440  824.533
  39.460  826.843
  39.480  390.870
  39.500  757.612
  39.520  559.504
  39.540  401.016
  39.560  433.706
  39.580  585.258
  39.600  874.299
  39.620  841.012
  39.640  483.917
  39.660  820.708
  39.680  429.550
  39.700  604.609
  39.720  385.719
  39.740  560.506
  39.760  487.799
  39.780  800.059
  39.800  632.523
  39.820  784.391
  39.840  470.321
  39.860  548.751
  39.880  852.612
  39.900  562.679
  39.920  552.065
  39.940  864.002
  39.960  712.316
  39.980  856.912
  40.000  691.542
  40.020  893.889
  40.040  441.530
  40.060  817.294
  40.080  596.766
  40.100  703.619
  40.120  531.438
  40.140  809.181
  40.160  895.999
  40.180  704.602
  40.200  732.914
  40.220  965.580
  40.240  832.321
  40.260 1019.795
  40.280  803.369
  40.300  901.171
  40.320  799.374
  40.340  883.638
  40.360  641.804
  40.380  838.813
  40.400  796.944
  40.420 1034.717
  40.440  584.092
  40.460  956.922
  40.480  736.703
  40.500 1031.341
  40.520  866.532
  40.540  920.664
  40.560  734.858
  40.580  809.931
  40.600  819.702
  40.620  944.519
  40.640  691.434
  40.660  774.381
  40.680  843.913
  40.700  543.357
  40.720  676.929
  40.740  731.760
  40.760  756.450
  40.780 1020.729
  40.800  579.286
  40.820  783.081
  40.840 1080.581
  40.860  755.348
  40.880  908.250
  40.900 1013.671
  40.920 1114.373
  40.940  706.789
  40.960  930.924
  40.980  840.629
  41.000  817.814
  41.020  923.476
  41.040  751.653
  41.060  872.598
  41.080  780.639
  41.100  585.185
  41.120  715.022
  41.140  877.779
  41.160  751.916
  41.180  700.753
  41.200  588.220
  41.220  906.213
  41.240  682.433
  41.260  753.480
  41.280  915.682
  41.300  749.323
  41.320  975.952
  41.340  992.832
  41.360  826.258
  41.380  610.662
  41.400  925.793
  41.420  620.892
  41.440  543.097
  41.460  668.984
  41.480 1065.301
  41.500  647.927
  41.520  541.006
  41.540  906.367
  41.560  515.821
  41.580  622.893
  41.600  637.497
  41.620  514.110
  41.640  661.437
  41.660  454.341
  41.680  840.666
  41.700  869.084
  41.720  781.234
  41.740  784.075
  41.760  783.904
  41.780  859.387
  41.800  764.477
  41.820  916.748
  41.840  718.227
  41.860  926.627
  41.880  618.856
  41.900  651.797
  41.920  817.535
  41.940  577.210
  41.960  584.130
  41.980  601.834
  42.000  529.407
  42.020  615.993
  42.040  935.125
  42.060  736.916
  42.080 1068.251
  42.100  855.837
  42.120  641.149
  42.140 1000.029
  42.160  716.345
  42.180  912.939
  42.200  742.825
  42.220  735.547
  42.240  710.513
  42.260 1179.324
  42.280 1024.051
  42.300  739.252
  42.320 1137.242
  42.340 1016.404
  42.360 1133.652
  42.380 1057.972
  42.400 1147.500
  42.420 1124.475
  42.440 1043.017
  42.460 1206.577
  42.480 1132.198
  42.500 1017.165
  42.520 1226.150
  42.540 1197.211
  42.560  990.824
  42.580  987.054
  42.600  918.262
  42.620 1079.570
  42.640 1161.938
  42.660 1003.450
  42.680 1104.447
  42.700  935.294
  42.720  914.251
  42.740  635.974
  42.760 1022.760
  42.780  849.230
  42.800  712.725
  42.820 1017.572
  42.840  530.406
  42.860  725.830
  42.880  902.760
  42.900  890.636
  42.920  820.719
  42.940  577.788
  42.960  775.209
  42.980  378.332
  43.000  787.330
  43.020  418.901
  43.040  625.752
  43.060  712.613
  43.080  462.284
  43.100  832.467
  43.120  661.512
  43.140  573.682
  43.160  475.644
  43.180  538.738
  43.200  431.092
  43.220  756.354
  43.240  325.619
  43.260  520.043
  43.280  764.944
  43.300  356.862
  43.320  811.955
  43.340  788.525
  43.360  656.971
  43.380  779.991
  43.400  635.755
  43.420  567.575
  43.440  384.074
  43.460  268.503
  43.480  356.045
  43.500  334.513
  43.520  667.952
  43.540  796.087
  43.560  728.211
  43.580  546.567
  43.600  605.990
  43.620  353.672
  43.640  768.616
  43.660  554.057
  43.680  317.340
  43.700  440.561
  43.720  624.339
  43.740  343.562
  43.760  438.063
  43.780  324.818
  43.800  597.548
  43.820  599.667
  43.840  776.436
  43.860  759.376
  43.880  878.025
  43.900  477.548
  43.920  645.745
  43.940  426.325
  43.960  763.725
  43.980  711.887
  44.000  664.494
