Sample	
Comments	
Filename	C:\WINDMAX\DATA\USERS\GEO\GEO_ER~1\Pyrenees\BULKMA~1\2M1-std2.raw
Goniometer	Ultima IV In-plane
Attachment	Auto sample changer (10 samples)
ScanningMode	2Theta/Theta
ScanningType	Continuos Scanning
X-Ray	40kV/44mA
DivSlit	2/3deg.
DivH.L.Slit	10mm
SctSlit	2/3deg.
RecSlit	0.3mm
Start	16
Stop	44
Step	0.02
Speed	0.3
Offset	0
  16.000  676.574
  16.020  725.027
  16.040  703.412
  16.060  839.061
  16.080  928.070
  16.100  914.260
  16.120  742.652
  16.140  876.899
  16.160  692.434
  16.180  454.729
  16.200  958.142
  16.220  441.141
  16.240  731.272
  16.260  750.295
  16.280  532.123
  16.300  795.396
  16.320  666.352
  16.340  538.072
  16.360  658.581
  16.380  538.849
  16.400  481.814
  16.420  463.379
  16.440  401.883
  16.460  419.563
  16.480  547.013
  16.500  480.000
  16.520  424.438
  16.540  549.010
  16.560  805.835
  16.580  779.240
  16.600  713.080
  16.620  837.516
  16.640  547.474
  16.660  527.333
  16.680  857.765
  16.700  464.234
  16.720  893.723
  16.740  809.116
  16.760  640.749
  16.780  871.403
  16.800  652.396
  16.820  433.330
  16.840  521.019
  16.860  869.861
  16.880  633.224
  16.900  613.575
  16.920  711.368
  16.940  737.934
  16.960  882.418
  16.980  469.978
  17.000  711.222
  17.020  470.934
  17.040  692.864
  17.060  632.944
  17.080  495.813
  17.100  634.307
  17.120  426.739
  17.140  627.500
  17.160  683.125
  17.180  750.208
  17.200  855.080
  17.220  743.982
  17.240  895.901
  17.260  752.766
  17.280  605.381
  17.300  808.222
  17.320  850.704
  17.340  671.231
  17.360  708.066
  17.380  449.686
  17.400  463.371
  17.420  826.965
  17.440  417.588
  17.460  930.143
  17.480  602.453
  17.500  515.640
  17.520  829.037
  17.540  689.248
  17.560  787.020
  17.580  541.625
  17.600  596.464
  17.620  758.171
  17.640  713.934
  17.660  794.060
  17.680  724.259
  17.700 1058.792
  17.720  783.926
  17.740  766.615
  17.760  956.105
  17.780 1201.720
  17.800  944.432
  17.820  937.846
  17.840 1341.368
  17.860 1315.601
  17.880 1342.065
  17.900 1150.362
  17.920 1122.400
  17.940 1125.026
  17.960 1415.911
  17.980 1440.678
  18.000 1469.473
  18.020 1330.808
  18.040 1082.832
  18.060 1149.873
  18.080 1314.336
  18.100 1000.639
  18.120 1259.318
  18.140 1055.465
  18.160  970.356
  18.180 1077.790
  18.200  805.088
  18.220 1005.869
  18.240  964.722
  18.260  610.710
  18.280  900.048
  18.300  879.166
  18.320 1032.380
  18.340  994.855
  18.360  555.297
  18.380  655.322
  18.400  800.655
  18.420  514.245
  18.440 1047.668
  18.460  924.693
  18.480  808.879
  18.500  625.501
  18.520  715.072
  18.540  519.292
  18.560  826.399
  18.580  522.353
  18.600  535.533
  18.620  847.256
  18.640  499.792
  18.660  462.103
  18.680  798.978
  18.700  699.919
  18.720  679.312
  18.740  983.925
  18.760  693.052
  18.780  860.841
  18.800  639.759
  18.820  570.204
  18.840  873.855
  18.860  863.763
  18.880  847.957
  18.900  760.322
  18.920  950.844
  18.940  489.144
  18.960  835.388
  18.980  574.584
  19.000  913.026
  19.020  851.638
  19.040  623.088
  19.060  633.277
  19.080  572.041
  19.100  730.776
  19.120  599.786
  19.140  657.431
  19.160  602.419
  19.180  945.343
  19.200  501.951
  19.220  709.554
  19.240  500.849
  19.260  612.238
  19.280  943.509
  19.300  775.466
  19.320  572.559
  19.340  920.542
  19.360  515.689
  19.380  762.009
  19.400  950.286
  19.420  620.565
  19.440  936.471
  19.460  531.765
  19.480  623.321
  19.500  618.100
  19.520  939.114
  19.540  589.134
  19.560  815.376
  19.580 1030.477
  19.600  786.475
  19.620 1148.176
  19.640 1107.361
  19.660 1060.056
  19.680 1325.274
  19.700 1251.593
  19.720 1153.462
  19.740 1116.604
  19.760 1177.014
  19.780 1289.935
  19.800 1330.412
  19.820 1478.416
  19.840 1789.563
  19.860 1641.901
  19.880 2065.936
  19.900 2009.921
  19.920 2459.350
  19.940 2377.677
  19.960 2691.298
  19.980 2741.263
  20.000 2852.710
  20.020 2600.634
  20.040 2422.509
  20.060 2294.867
  20.080 2289.507
  20.100 2166.336
  20.120 2184.538
  20.140 1873.293
  20.160 1616.386
  20.180 1921.884
  20.200 1451.376
  20.220 1620.925
  20.240 1585.446
  20.260 1291.650
  20.280 1006.293
  20.300 1373.618
  20.320 1315.347
  20.340  969.957
  20.360 1034.054
  20.380  874.636
  20.400  950.304
  20.420 1059.610
  20.440 1268.242
  20.460 1241.849
  20.480  981.204
  20.500 1080.990
  20.520 1151.742
  20.540  732.562
  20.560  694.168
  20.580 1170.815
  20.600 1227.327
  20.620  884.119
  20.640 1003.439
  20.660 1072.460
  20.680 1088.836
  20.700 1141.152
  20.720 1071.156
  20.740 1257.607
  20.760 1119.746
  20.780 1392.613
  20.800 1000.660
  20.820 1078.828
  20.840  922.430
  20.860 1276.199
  20.880 1113.810
  20.900 1323.559
  20.920  872.766
  20.940  798.595
  20.960  922.827
  20.980  728.275
  21.000  996.025
  21.020  675.237
  21.040  958.055
  21.060  939.276
  21.080  819.187
  21.100  719.037
  21.120  755.809
  21.140  740.194
  21.160  746.876
  21.180  569.038
  21.200  928.968
  21.220  550.010
  21.240  745.977
  21.260  657.931
  21.280  964.461
  21.300  979.955
  21.320  660.163
  21.340  676.515
  21.360 1057.528
  21.380  692.561
  21.400 1026.700
  21.420  930.117
  21.440  595.778
  21.460 1067.317
  21.480  824.792
  21.500  842.888
  21.520  849.903
  21.540  712.567
  21.560  851.898
  21.580 1227.266
  21.600  790.266
  21.620 1206.729
  21.640  939.635
  21.660 1159.262
  21.680  906.807
  21.700 1318.065
  21.720 1137.576
  21.740 1275.321
  21.760 1159.544
  21.780 1104.794
  21.800  968.906
  21.820 1235.202
  21.840 1143.021
  21.860 1192.128
  21.880  754.632
  21.900  922.589
  21.920  965.262
  21.940  653.154
  21.960 1019.106
  21.980  774.365
  22.000  980.803
  22.020  589.334
  22.040  916.072
  22.060 1072.864
  22.080  848.775
  22.100  643.550
  22.120  834.568
  22.140  822.957
  22.160  587.175
  22.180  985.620
  22.200  760.119
  22.220  812.293
  22.240  618.532
  22.260 1018.926
  22.280  803.061
  22.300  676.700
  22.320  610.349
  22.340  895.304
  22.360  850.662
  22.380  657.683
  22.400  751.156
  22.420  773.396
  22.440  894.864
  22.460  841.527
  22.480  871.591
  22.500  960.436
  22.520 1058.108
  22.540 1090.564
  22.560 1148.238
  22.580  957.744
  22.600 1100.378
  22.620  736.795
  22.640 1174.581
  22.660  976.599
  22.680  668.372
  22.700  743.096
  22.720 1040.067
  22.740  743.883
  22.760 1027.275
  22.780  809.811
  22.800 1022.673
  22.820  973.821
  22.840  904.383
  22.860 1039.490
  22.880 1130.837
  22.900 1048.115
  22.920 1526.334
  22.940 1201.481
  22.960 1622.690
  22.980 1455.116
  23.000 1676.170
  23.020 1443.180
  23.040 1463.896
  23.060 1888.384
  23.080 1401.904
  23.100 1548.754
  23.120 1702.596
  23.140 1741.845
  23.160 1400.508
  23.180 1355.713
  23.200 1419.145
  23.220 1476.747
  23.240 1173.437
  23.260  989.656
  23.280  983.958
  23.300 1233.972
  23.320  930.483
  23.340 1192.482
  23.360  829.833
  23.380  953.500
  23.400  644.257
  23.420  653.908
  23.440 1038.289
  23.460  956.467
  23.480  642.122
  23.500  947.920
  23.520  697.010
  23.540 1030.223
  23.560  638.248
  23.580 1016.048
  23.600  750.890
  23.620  924.639
  23.640  931.812
  23.660  942.667
  23.680  775.663
  23.700  900.157
  23.720 1227.829
  23.740 1036.514
  23.760  919.847
  23.780 1365.998
  23.800 1223.159
  23.820 1025.893
  23.840 1513.125
  23.860 1419.733
  23.880 1345.205
  23.900 1297.316
  23.920 1508.775
  23.940 1722.434
  23.960 1326.199
  23.980 1807.164
  24.000 1512.409
  24.020 1371.091
  24.040 1688.626
  24.060 1614.745
  24.080 1414.706
  24.100 1684.094
  24.120 1159.252
  24.140 1152.832
  24.160 1117.323
  24.180 1290.893
  24.200 1429.397
  24.220 1248.016
  24.240 1034.436
  24.260 1016.674
  24.280 1426.597
  24.300  920.075
  24.320  976.047
  24.340  871.224
  24.360  828.487
  24.380  973.516
  24.400 1006.207
  24.420  851.579
  24.440  971.055
  24.460 1071.775
  24.480  618.413
  24.500  986.276
  24.520  737.190
  24.540  918.851
  24.560  998.124
  24.580  860.952
  24.600  776.458
  24.620  636.504
  24.640  891.320
  24.660  737.961
  24.680  820.145
  24.700  958.363
  24.720  951.866
  24.740  738.284
  24.760  615.895
  24.780  663.085
  24.800  609.742
  24.820 1035.084
  24.840 1052.052
  24.860  703.779
  24.880  923.809
  24.900 1125.302
  24.920  771.785
  24.940  916.257
  24.960 1148.473
  24.980 1060.013
  25.000  769.202
  25.020  712.815
  25.040  879.421
  25.060  787.633
  25.080  919.685
  25.100  856.066
  25.120 1200.228
  25.140  835.843
  25.160 1033.528
  25.180  859.159
  25.200 1332.773
  25.220 1346.493
  25.240 1299.412
  25.260  877.913
  25.280  980.598
  25.300 1049.667
  25.320 1021.063
  25.340 1211.014
  25.360 1288.649
  25.380 1414.121
  25.400 1040.952
  25.420 1380.415
  25.440 1477.799
  25.460 1412.754
  25.480 1568.301
  25.500 1451.414
  25.520 1503.940
  25.540 1622.517
  25.560 1758.815
  25.580 1905.317
  25.600 1628.589
  25.620 1879.186
  25.640 1593.372
  25.660 1733.489
  25.680 1942.757
  25.700 1593.211
  25.720 1802.481
  25.740 1471.781
  25.760 1331.786
  25.780 1153.671
  25.800 1423.891
  25.820 1325.324
  25.840 1405.333
  25.860 1364.937
  25.880  897.866
  25.900 1191.900
  25.920 1233.853
  25.940  802.269
  25.960  792.763
  25.980  758.044
  26.000 1094.345
  26.020  729.626
  26.040  754.895
  26.060  790.024
  26.080  950.140
  26.100  876.754
  26.120  644.867
  26.140  986.835
  26.160  706.593
  26.180 1087.876
  26.200 1121.489
  26.220  984.708
  26.240 1083.241
  26.260  916.152
  26.280  881.386
  26.300  761.155
  26.320  994.752
  26.340 1114.826
  26.360 1196.556
  26.380 1226.277
  26.400 1229.639
  26.420 1188.790
  26.440  971.672
  26.460 1093.843
  26.480 1138.443
  26.500 1050.714
  26.520 1353.268
  26.540 1324.709
  26.560 1485.541
  26.580 1191.350
  26.600 1450.692
  26.620 1659.903
  26.640 1738.747
  26.660 1787.895
  26.680 1682.776
  26.700 1916.292
  26.720 2118.128
  26.740 2038.205
  26.760 1906.147
  26.780 2192.071
  26.800 2157.795
  26.820 2230.796
  26.840 2508.588
  26.860 2454.797
  26.880 2639.057
  26.900 2167.296
  26.920 2128.504
  26.940 2240.550
  26.960 2241.888
  26.980 1755.009
  27.000 1877.138
  27.020 1910.875
  27.040 1404.139
  27.060 1731.933
  27.080 1564.859
  27.100 1604.028
  27.120 1288.452
  27.140  992.910
  27.160 1050.799
  27.180 1302.807
  27.200 1293.629
  27.220 1168.847
  27.240 1107.450
  27.260  804.844
  27.280  869.646
  27.300 1117.506
  27.320  723.865
  27.340  704.662
  27.360  763.180
  27.380  848.188
  27.400  797.389
  27.420  883.522
  27.440  993.915
  27.460  761.377
  27.480  683.968
  27.500  976.075
  27.520  867.447
  27.540  938.450
  27.560 1058.414
  27.580 1148.381
  27.600  705.063
  27.620  671.500
  27.640  754.124
  27.660 1110.296
  27.680 1023.523
  27.700 1128.532
  27.720  823.562
  27.740 1061.502
  27.760 1101.089
  27.780 1152.702
  27.800 1343.059
  27.820 1322.577
  27.840 1187.801
  27.860 1378.694
  27.880 1523.999
  27.900 1492.303
  27.920 1524.327
  27.940 1625.635
  27.960 1720.275
  27.980 1563.227
  28.000 1471.376
  28.020 1708.019
  28.040 1785.975
  28.060 1765.669
  28.080 1713.766
  28.100 1546.816
  28.120 1534.195
  28.140 1238.934
  28.160 1371.382
  28.180 1482.819
  28.200 1312.636
  28.220 1296.280
  28.240 1357.256
  28.260  951.544
  28.280 1278.144
  28.300 1139.537
  28.320 1262.855
  28.340  853.488
  28.360 1188.215
  28.380  918.660
  28.400 1121.826
  28.420 1116.586
  28.440  666.015
  28.460 1068.657
  28.480  619.293
  28.500 1075.615
  28.520  951.121
  28.540  719.042
  28.560  787.066
  28.580 1127.642
  28.600  876.190
  28.620  915.349
  28.640  686.888
  28.660  750.312
  28.680  710.805
  28.700 1136.257
  28.720  702.754
  28.740 1169.269
  28.760  936.866
  28.780 1030.885
  28.800 1020.211
  28.820  966.866
  28.840 1104.255
  28.860  667.787
  28.880  902.580
  28.900 1129.336
  28.920  691.523
  28.940  958.393
  28.960  940.971
  28.980 1022.849
  29.000  845.753
  29.020 1020.355
  29.040  806.985
  29.060  870.448
  29.080  826.523
  29.100  843.930
  29.120  893.952
  29.140  799.675
  29.160  627.675
  29.180  918.594
  29.200  544.132
  29.220  953.633
  29.240  602.526
  29.260  780.330
  29.280 1007.612
  29.300  478.538
  29.320  516.800
  29.340  850.181
  29.360  610.828
  29.380  769.097
  29.400  565.463
  29.420  785.575
  29.440  866.759
  29.460  781.022
  29.480  601.149
  29.500  728.566
  29.520  861.704
  29.540  575.397
  29.560 1026.225
  29.580 1054.197
  29.600  765.861
  29.620  869.578
  29.640 1097.487
  29.660  869.692
  29.680  815.727
  29.700  750.194
  29.720  998.628
  29.740  932.627
  29.760  767.038
  29.780 1157.562
  29.800 1033.544
  29.820 1199.603
  29.840 1181.737
  29.860  981.988
  29.880 1390.079
  29.900 1260.509
  29.920 1557.391
  29.940 1320.773
  29.960 1474.730
  29.980 1645.305
  30.000 1763.112
  30.020 1535.010
  30.040 1564.142
  30.060 1747.882
  30.080 1414.701
  30.100 1369.010
  30.120 1617.941
  30.140 1499.218
  30.160 1063.995
  30.180  980.810
  30.200 1275.465
  30.220 1260.000
  30.240 1008.047
  30.260 1124.203
  30.280  913.394
  30.300  814.096
  30.320  958.129
  30.340  656.413
  30.360 1031.603
  30.380  725.380
  30.400 1012.536
  30.420  803.661
  30.440  784.694
  30.460  945.825
  30.480  611.612
  30.500  920.761
  30.520  830.673
  30.540  927.027
  30.560  630.325
  30.580  937.765
  30.600  503.932
  30.620  606.507
  30.640  610.147
  30.660  813.403
  30.680  600.405
  30.700  856.815
  30.720  618.801
  30.740  906.810
  30.760  815.630
  30.780  682.994
  30.800  496.297
  30.820  672.227
  30.840  957.410
  30.860  741.570
  30.880  525.980
  30.900 1019.296
  30.920  881.690
  30.940  879.231
  30.960  631.887
  30.980  954.106
  31.000  580.694
  31.020  857.039
  31.040  665.519
  31.060  734.010
  31.080 1031.945
  31.100  894.284
  31.120  980.537
  31.140 1022.114
  31.160  847.606
  31.180  948.617
  31.200 1238.161
  31.220 1243.313
  31.240 1416.773
  31.260 1296.327
  31.280 1171.071
  31.300 1635.012
  31.320 1348.065
  31.340 1390.151
  31.360 1646.454
  31.380 1454.153
  31.400 1497.765
  31.420 1391.864
  31.440 1415.932
  31.460 1603.315
  31.480 1458.365
  31.500 1713.894
  31.520 1474.681
  31.540 1252.072
  31.560 1624.146
  31.580 1607.377
  31.600 1281.498
  31.620 1355.420
  31.640 1481.571
  31.660 1643.296
  31.680 1411.241
  31.700 1566.668
  31.720 1337.029
  31.740 1633.237
  31.760 1608.478
  31.780 1429.495
  31.800 1553.891
  31.820 1325.906
  31.840 1116.846
  31.860 1144.259
  31.880 1284.144
  31.900 1408.190
  31.920 1049.130
  31.940 1126.031
  31.960 1076.244
  31.980 1014.662
  32.000 1085.704
  32.020 1038.179
  32.040 1041.640
  32.060  983.466
  32.080  836.665
  32.100  900.843
  32.120  964.440
  32.140  959.894
  32.160 1013.072
  32.180 1136.951
  32.200 1277.395
  32.220  993.715
  32.240  971.384
  32.260 1146.858
  32.280 1095.445
  32.300 1178.174
  32.320  832.386
  32.340 1015.732
  32.360  868.189
  32.380  652.369
  32.400  692.579
  32.420 1065.897
  32.440 1008.008
  32.460  558.412
  32.480  717.703
  32.500  723.975
  32.520 1001.828
  32.540  760.975
  32.560  770.524
  32.580  970.588
  32.600  663.361
  32.620  704.891
  32.640  596.288
  32.660  618.305
  32.680  723.126
  32.700  534.316
  32.720  786.000
  32.740  580.098
  32.760  460.597
  32.780  714.613
  32.800  940.572
  32.820  511.707
  32.840  495.439
  32.860  963.994
  32.880  710.535
  32.900  853.975
  32.920  490.541
  32.940  504.503
  32.960  830.042
  32.980  839.894
  33.000  877.849
  33.020  563.623
  33.040  877.774
  33.060  533.881
  33.080  910.179
  33.100  725.296
  33.120  894.118
  33.140  564.540
  33.160  664.675
  33.180  603.027
  33.200  843.352
  33.220  506.577
  33.240  841.396
  33.260  586.155
  33.280  935.321
  33.300  428.987
  33.320  582.718
  33.340  676.385
  33.360  392.315
  33.380  599.738
  33.400  449.195
  33.420  638.908
  33.440  736.237
  33.460  531.455
  33.480  417.944
  33.500  383.890
  33.520  878.311
  33.540  757.468
  33.560  601.872
  33.580  881.949
  33.600  811.488
  33.620  464.338
  33.640  416.776
  33.660  521.996
  33.680  674.698
  33.700  793.284
  33.720  900.296
  33.740  650.141
  33.760  508.734
  33.780  431.408
  33.800  727.396
  33.820  701.786
  33.840  888.782
  33.860  868.569
  33.880  640.959
  33.900  843.980
  33.920  665.266
  33.940  711.802
  33.960  838.829
  33.980  448.331
  34.000  864.957
  34.020  844.162
  34.040  795.975
  34.060  578.716
  34.080  655.556
  34.100  501.656
  34.120  901.999
  34.140  608.297
  34.160 1015.239
  34.180  578.240
  34.200  966.788
  34.220  834.178
  34.240  674.016
  34.260  863.042
  34.280  806.483
  34.300  901.511
  34.320  735.771
  34.340  718.038
  34.360  495.915
  34.380  851.421
  34.400  546.273
  34.420  829.305
  34.440  719.872
  34.460  800.425
  34.480  797.888
  34.500  895.571
  34.520  832.580
  34.540  741.701
  34.560  947.439
  34.580  929.002
  34.600 1306.094
  34.620 1386.398
  34.640 1352.461
  34.660 1218.713
  34.680 1195.924
  34.700 1748.953
  34.720 1285.498
  34.740 1581.127
  34.760 1554.880
  34.780 1613.742
  34.800 1798.744
  34.820 1882.564
  34.840 1794.922
  34.860 1963.762
  34.880 1602.931
  34.900 1663.248
  34.920 1698.838
  34.940 1599.319
  34.960 1684.159
  34.980 2221.316
  35.000 2237.660
  35.020 2301.071
  35.040 2524.246
  35.060 2431.997
  35.080 2593.973
  35.100 2822.320
  35.120 2769.250
  35.140 2512.668
  35.160 2785.358
  35.180 2585.022
  35.200 2961.888
  35.220 2654.692
  35.240 2780.572
  35.260 2549.677
  35.280 2360.222
  35.300 1974.124
  35.320 1930.254
  35.340 2056.456
  35.360 1510.088
  35.380 1465.866
  35.400 1155.682
  35.420 1365.368
  35.440 1120.728
  35.460 1099.984
  35.480 1265.231
  35.500 1112.210
  35.520 1076.996
  35.540  706.403
  35.560 1021.116
  35.580  835.689
  35.600  928.196
  35.620 1006.246
  35.640  849.160
  35.660  592.540
  35.680 1000.931
  35.700  723.335
  35.720  844.329
  35.740  768.000
  35.760  617.399
  35.780  654.051
  35.800  963.316
  35.820  764.524
  35.840  740.066
  35.860  952.752
  35.880  809.623
  35.900  657.283
  35.920  844.676
  35.940  704.352
  35.960  711.570
  35.980  687.095
  36.000  699.347
  36.020  728.889
  36.040  953.929
  36.060  633.757
  36.080 1074.861
  36.100  843.214
  36.120  944.664
  36.140  765.448
  36.160  973.831
  36.180  906.986
  36.200  796.256
  36.220  828.795
  36.240 1085.823
  36.260  930.626
  36.280  956.978
  36.300  621.066
  36.320  897.247
  36.340 1012.694
  36.360  952.857
  36.380  997.115
  36.400 1119.422
  36.420  746.716
  36.440 1069.495
  36.460 1144.735
  36.480 1101.841
  36.500 1012.909
  36.520  932.252
  36.540 1174.521
  36.560  886.802
  36.580 1191.789
  36.600  910.292
  36.620 1386.923
  36.640 1090.287
  36.660  853.306
  36.680 1131.126
  36.700 1087.868
  36.720 1331.481
  36.740 1155.557
  36.760  864.594
  36.780 1226.509
  36.800 1091.212
  36.820  802.229
  36.840  994.302
  36.860 1144.483
  36.880  776.668
  36.900  749.884
  36.920  839.030
  36.940 1141.775
  36.960  959.390
  36.980  862.691
  37.000 1078.946
  37.020  839.162
  37.040  973.542
  37.060 1036.917
  37.080 1021.241
  37.100  817.143
  37.120  961.043
  37.140  618.432
  37.160 1034.861
  37.180 1004.381
  37.200  822.146
  37.220  626.759
  37.240  789.434
  37.260  911.955
  37.280  900.073
  37.300  677.884
  37.320  938.481
  37.340  499.707
  37.360  903.734
  37.380 1017.011
  37.400 1064.024
  37.420  653.193
  37.440  806.624
  37.460  937.613
  37.480  617.167
  37.500 1076.033
  37.520  915.635
  37.540 1018.800
  37.560 1108.562
  37.580  798.848
  37.600  890.836
  37.620 1051.946
  37.640 1182.102
  37.660  839.504
  37.680 1015.901
  37.700 1153.414
  37.720  948.269
  37.740  880.671
  37.760  869.923
  37.780 1328.415
  37.800  916.574
  37.820  974.248
  37.840  989.748
  37.860  923.909
  37.880  920.802
  37.900 1048.024
  37.920 1297.864
  37.940 1280.198
  37.960  973.859
  37.980 1128.033
  38.000 1226.097
  38.020 1172.667
  38.040 1241.968
  38.060 1254.414
  38.080 1060.785
  38.100  816.577
  38.120 1118.320
  38.140 1005.199
  38.160  931.731
  38.180  822.090
  38.200 1106.702
  38.220 1121.872
  38.240  841.257
  38.260 1057.360
  38.280  634.363
  38.300  977.061
  38.320  982.141
  38.340  760.258
  38.360  830.027
  38.380  949.202
  38.400  858.783
  38.420  493.445
  38.440  601.170
  38.460  668.142
  38.480  730.082
  38.500  525.197
  38.520  750.337
  38.540  573.173
  38.560  703.433
  38.580  468.123
  38.600  630.045
  38.620  792.251
  38.640  431.504
  38.660  423.305
  38.680  365.410
  38.700  548.605
  38.720  616.269
  38.740  812.764
  38.760  820.222
  38.780  704.986
  38.800  728.828
  38.820  741.545
  38.840  580.484
  38.860  440.892
  38.880  604.255
  38.900  372.186
  38.920  640.026
  38.940  649.562
  38.960  445.093
  38.980  673.068
  39.000  370.588
  39.020  604.366
  39.040  719.479
  39.060  577.121
  39.080  600.600
  39.100  448.065
  39.120  824.146
  39.140  704.084
  39.160  422.227
  39.180  428.042
  39.200  795.727
  39.220  397.290
  39.240  783.754
  39.260  537.593
  39.280  387.198
  39.300  539.356
  39.320  844.613
  39.340  676.854
  39.360  488.672
  39.380  642.057
  39.400  714.177
  39.420  736.813
  39.440  848.081
  39.460  703.463
  39.480  833.552
  39.500  523.385
  39.520  766.587
  39.540  468.218
  39.560  662.237
  39.580  470.397
  39.600  694.051
  39.620  479.998
  39.640  615.458
  39.660  738.456
  39.680  676.856
  39.700  503.254
  39.720  517.332
  39.740  567.778
  39.760  474.072
  39.780  648.979
  39.800  860.423
  39.820  542.887
  39.840  502.315
  39.860  860.416
  39.880  428.794
  39.900  543.723
  39.920  568.425
  39.940  889.737
  39.960  646.550
  39.980  555.345
  40.000  534.097
  40.020  697.444
  40.040  539.541
  40.060  910.056
  40.080  740.082
  40.100  675.294
  40.120  886.096
  40.140  668.580
  40.160  941.665
  40.180 1126.050
  40.200  699.912
  40.220 1088.617
  40.240 1070.188
  40.260 1093.948
  40.280 1113.445
  40.300  883.391
  40.320  873.073
  40.340  904.014
  40.360  773.453
  40.380  898.556
  40.400  742.074
  40.420  654.975
  40.440  680.462
  40.460  792.162
  40.480  781.575
  40.500  691.191
  40.520  741.738
  40.540  900.415
  40.560  962.288
  40.580  571.211
  40.600  676.110
  40.620  587.476
  40.640  984.721
  40.660  762.313
  40.680  818.462
  40.700  726.160
  40.720  563.793
  40.740  567.753
  40.760  806.944
  40.780  576.524
  40.800  931.726
  40.820  711.993
  40.840  773.757
  40.860  718.566
  40.880  902.001
  40.900 1039.594
  40.920  799.639
  40.940  935.497
  40.960  770.367
  40.980  763.024
  41.000  939.103
  41.020  917.425
  41.040  610.620
  41.060  850.141
  41.080  616.142
  41.100 1002.726
  41.120  807.799
  41.140  660.473
  41.160  990.959
  41.180  876.960
  41.200  893.366
  41.220  647.951
  41.240  637.514
  41.260  615.670
  41.280  666.444
  41.300  562.364
  41.320  875.679
  41.340  575.460
  41.360  834.772
  41.380 1043.086
  41.400  764.792
  41.420  984.362
  41.440 1038.490
  41.460  979.710
  41.480  660.851
  41.500 1027.831
  41.520  538.800
  41.540  652.721
  41.560  966.802
  41.580  563.170
  41.600  819.069
  41.620  625.634
  41.640  541.529
  41.660  933.331
  41.680  714.405
  41.700  608.023
  41.720  485.370
  41.740  800.777
  41.760  739.720
  41.780  492.402
  41.800  792.598
  41.820  921.988
  41.840  858.407
  41.860  542.005
  41.880  442.782
  41.900  803.554
  41.920  883.822
  41.940  853.022
  41.960  746.137
  41.980  798.323
  42.000  581.873
  42.020  873.588
  42.040  588.392
  42.060 1076.684
  42.080  749.784
  42.100 1101.117
  42.120 1000.292
  42.140  750.705
  42.160 1006.109
  42.180  937.818
  42.200  932.010
  42.220 1041.480
  42.240 1032.988
  42.260  723.598
  42.280 1115.961
  42.300 1201.362
  42.320  708.697
  42.340  775.397
  42.360 1171.513
  42.380  902.826
  42.400 1033.632
  42.420 1014.326
  42.440  922.743
  42.460  776.979
  42.480  840.984
  42.500 1034.966
  42.520  977.369
  42.540  959.681
  42.560  989.406
  42.580  946.971
  42.600  834.458
  42.620 1061.563
  42.640 1203.457
  42.660 1190.099
  42.680  909.925
  42.700  820.643
  42.720 1091.703
  42.740  910.286
  42.760  864.500
  42.780  740.839
  42.800  582.683
  42.820  625.218
  42.840  803.102
  42.860  951.558
  42.880  495.683
  42.900  874.336
  42.920  812.149
  42.940  422.362
  42.960  641.188
  42.980  592.230
  43.000  622.344
  43.020  373.881
  43.040  856.857
  43.060  380.600
  43.080  848.001
  43.100  718.215
  43.120  828.597
  43.140  500.137
  43.160  483.261
  43.180  743.995
  43.200  775.950
  43.220  714.618
  43.240  813.498
  43.260  493.805
  43.280  495.825
  43.300  426.210
  43.320  515.477
  43.340  613.958
  43.360  702.431
  43.380  357.734
  43.400  502.861
  43.420  540.200
  43.440  390.531
  43.460  425.831
  43.480  578.204
  43.500  795.444
  43.520  425.860
  43.540  654.254
  43.560  737.276
  43.580  418.545
  43.600  355.985
  43.620  323.300
  43.640  304.753
  43.660  830.686
  43.680  363.228
  43.700  748.166
  43.720  692.521
  43.740  533.128
  43.760  715.254
  43.780  330.643
  43.800  838.905
  43.820  404.239
  43.840  581.727
  43.860  524.811
  43.880  412.803
  43.900  500.085
  43.920  680.021
  43.940  447.913
  43.960  476.480
  43.980  563.870
  44.000  613.795
