Sample	
Comments	
Filename	C:\WINDMAX\DATA\USERS\GEO\GEO_ER~1\Pyrenees\BULKMA~1\2M1-std2.raw
Goniometer	Ultima IV In-plane
Attachment	Auto sample changer (10 samples)
ScanningMode	2Theta/Theta
ScanningType	Continuos Scanning
X-Ray	40kV/44mA
DivSlit	2/3deg.
DivH.L.Slit	10mm
SctSlit	2/3deg.
RecSlit	0.3mm
Start	16
Stop	44
Step	0.02
Speed	0.3
Offset	0
  16.000  925.896
  16.020  522.629
  16.040  612.272
  16.060  960.201
  16.080  472.742
  16.100  775.284
  16.120  557.148
  16.140  670.453
  16.160  986.083
  16.180  827.103
  16.200  688.786
  16.220  955.676
  16.240  468.234
  16.260  498.349
  16.280  724.174
  16.300  768.536
  16.320  773.211
  16.340  524.375
  16.360  891.443
  16.380  813.203
  16.400  546.238
  16.420  809.627
  16.440  647.551
  16.460  657.334
  16.480  655.770
  16.500  405.810
  16.520  826.642
  16.540  678.142
  16.560  457.177
  16.580  497.783
  16.600  509.763
  16.620  613.181
  16.640  869.501
  16.660  536.712
  16.680  895.936
  16.700  490.362
  16.720  770.423
  16.740  535.846
  16.760  489.476
  16.780  661.521
  16.800  741.408
  16.820  598.055
  16.840  599.684
  16.860  415.420
  16.880  716.683
  16.900  511.315
  16.920  759.606
  16.940  771.277
  16.960  427.007
  16.980  377.954
  17.000  869.617
  17.020  389.084
  17.040  481.696
  17.060  906.253
  17.080  600.668
  17.100  472.947
  17.120  771.338
  17.140  892.445
  17.160  572.070
  17.180  612.979
  17.200  458.928
  17.220  538.503
  17.240  598.580
  17.260  871.409
  17.280  642.067
  17.300  786.435
  17.320  820.049
  17.340  585.362
  17.360  822.982
  17.380  603.538
  17.400  728.242
  17.420  914.965
  17.440  777.980
  17.460  568.740
  17.480  475.222
  17.500  490.065
  17.520  883.647
  17.540  963.482
  17.560  825.348
  17.580  555.459
  17.600  536.280
  17.620  934.226
  17.640  674.941
  17.660  636.154
  17.680  778.658
  17.700  863.243
  17.720  657.799
  17.740  893.236
  17.760  953.098
  17.780 1147.446
  17.800  947.479
  17.820 1353.241
  17.840 1409.283
  17.860 1214.493
  17.880 1261.116
  17.900 1485.103
  17.920 1324.309
  17.940 1475.632
  17.960 1605.166
  17.980 1508.312
  18.000 1504.254
  18.020 1200.093
  18.040 1361.791
  18.060 1501.740
  18.080 1289.048
  18.100 1147.784
  18.120 1044.078
  18.140  955.958
  18.160 1227.523
  18.180 1148.294
  18.200  836.439
  18.220  699.810
  18.240 1053.291
  18.260 1108.336
  18.280  856.030
  18.300  890.384
  18.320  834.482
  18.340  957.680
  18.360  669.587
  18.380  865.309
  18.400  518.369
  18.420  524.046
  18.440 1027.792
  18.460  691.174
  18.480  875.239
  18.500  533.738
  18.520  529.077
  18.540  927.512
  18.560  897.678
  18.580  797.385
  18.600  728.043
  18.620  759.576
  18.640  616.121
  18.660  877.605
  18.680  522.050
  18.700  864.352
  18.720  987.991
  18.740  708.063
  18.760  655.941
  18.780  540.732
  18.800  502.310
  18.820  560.171
  18.840  685.780
  18.860  627.782
  18.880  510.646
  18.900  757.666
  18.920  561.543
  18.940  475.249
  18.960  879.182
  18.980  529.486
  19.000  774.113
  19.020  467.977
  19.040  754.374
  19.060  843.285
  19.080  584.535
  19.100  698.829
  19.120  906.403
  19.140  713.199
  19.160  726.973
  19.180  628.311
  19.200  577.071
  19.220  499.301
  19.240  850.430
  19.260  644.449
  19.280  550.033
  19.300  901.342
  19.320  966.562
  19.340  695.357
  19.360  969.831
  19.380  489.540
  19.400  790.480
  19.420  509.384
  19.440  878.777
  19.460  843.716
  19.480  545.879
  19.500 1027.960
  19.520 1034.224
  19.540  893.574
  19.560 1028.739
  19.580  998.090
  19.600  969.174
  19.620  928.162
  19.640 1029.097
  19.660 1276.246
  19.680 1034.557
  19.700 1064.769
  19.720 1030.983
  19.740  983.000
  19.760 1522.957
  19.780 1240.673
  19.800 1529.348
  19.820 1587.902
  19.840 1906.226
  19.860 1644.025
  19.880 2190.450
  19.900 2287.688
  19.920 2212.456
  19.940 2438.407
  19.960 2328.241
  19.980 2728.771
  20.000 2591.212
  20.020 2761.698
  20.040 2649.092
  20.060 2526.583
  20.080 2706.509
  20.100 2352.150
  20.120 2397.091
  20.140 2134.236
  20.160 1788.169
  20.180 1600.798
  20.200 1686.857
  20.220 1327.489
  20.240 1584.838
  20.260 1365.796
  20.280 1415.476
  20.300 1058.758
  20.320 1238.959
  20.340  829.553
  20.360 1196.588
  20.380 1163.825
  20.400 1105.462
  20.420 1003.969
  20.440  900.355
  20.460 1048.584
  20.480 1231.700
  20.500 1139.358
  20.520  718.243
  20.540 1020.137
  20.560  853.046
  20.580 1186.356
  20.600  810.211
  20.620  881.233
  20.640 1243.157
  20.660 1223.356
  20.680 1006.701
  20.700 1198.155
  20.720 1378.801
  20.740 1370.598
  20.760 1323.900
  20.780 1334.650
  20.800 1125.162
  20.820 1252.464
  20.840 1370.588
  20.860  939.413
  20.880 1030.176
  20.900 1100.251
  20.920  952.031
  20.940 1029.044
  20.960  920.723
  20.980  863.815
  21.000  906.555
  21.020  870.494
  21.040  785.126
  21.060  761.022
  21.080  936.585
  21.100  897.170
  21.120  833.022
  21.140 1032.286
  21.160  924.230
  21.180  615.726
  21.200  869.634
  21.220  971.032
  21.240 1055.387
  21.260  596.242
  21.280 1055.618
  21.300  863.412
  21.320  552.548
  21.340  959.849
  21.360  655.359
  21.380  622.763
  21.400  684.732
  21.420  973.598
  21.440  656.187
  21.460  707.799
  21.480  627.647
  21.500  694.977
  21.520 1118.439
  21.540  853.570
  21.560 1159.926
  21.580 1262.120
  21.600  890.593
  21.620 1149.093
  21.640 1088.580
  21.660  830.238
  21.680 1180.538
  21.700 1113.839
  21.720 1011.212
  21.740 1059.898
  21.760 1226.783
  21.780  954.828
  21.800 1019.763
  21.820 1096.284
  21.840  839.218
  21.860  969.449
  21.880 1186.083
  21.900 1064.034
  21.920  945.349
  21.940 1105.227
  21.960  648.340
  21.980  702.448
  22.000  867.348
  22.020 1017.998
  22.040 1048.367
  22.060  715.964
  22.080  883.756
  22.100  666.722
  22.120  700.972
  22.140  778.390
  22.160  941.271
  22.180  856.609
  22.200  601.727
  22.220  724.434
  22.240  738.607
  22.260  697.423
  22.280  867.993
  22.300  668.718
  22.320  925.107
  22.340  584.096
  22.360  653.049
  22.380  629.725
  22.400  990.086
  22.420 1030.441
  22.440  926.557
  22.460 1157.726
  22.480  953.355
  22.500  944.579
  22.520  787.322
  22.540  786.521
  22.560 1051.264
  22.580  881.415
  22.600 1098.490
  22.620 1163.161
  22.640 1227.052
  22.660 1133.257
  22.680  759.734
  22.700 1138.789
  22.720 1112.175
  22.740  911.330
  22.760 1037.607
  22.780  868.826
  22.800 1034.272
  22.820  939.495
  22.840 1192.663
  22.860 1333.133
  22.880  979.294
  22.900 1369.958
  22.920 1188.012
  22.940 1413.129
  22.960 1239.946
  22.980 1621.336
  23.000 1487.175
  23.020 1546.247
  23.040 1818.276
  23.060 1587.771
  23.080 1820.325
  23.100 1346.355
  23.120 1740.897
  23.140 1329.781
  23.160 1269.523
  23.180 1404.780
  23.200 1087.278
  23.220 1036.099
  23.240 1151.606
  23.260 1124.575
  23.280 1155.866
  23.300 1170.511
  23.320 1026.560
  23.340  856.270
  23.360  667.761
  23.380  689.317
  23.400  919.243
  23.420  790.354
  23.440  981.711
  23.460  868.872
  23.480  821.474
  23.500  813.831
  23.520 1064.276
  23.540  939.866
  23.560 1017.258
  23.580 1145.333
  23.600 1012.270
  23.620  872.327
  23.640 1140.518
  23.660  785.582
  23.680 1020.393
  23.700  882.564
  23.720  752.878
  23.740 1149.710
  23.760  959.181
  23.780 1292.620
  23.800 1024.800
  23.820 1383.275
  23.840 1133.035
  23.860 1460.533
  23.880 1418.963
  23.900 1469.934
  23.920 1223.242
  23.940 1607.517
  23.960 1367.529
  23.980 1558.499
  24.000 1446.837
  24.020 1807.655
  24.040 1724.185
  24.060 1635.565
  24.080 1628.389
  24.100 1212.244
  24.120 1356.687
  24.140 1158.830
  24.160 1220.080
  24.180 1489.354
  24.200 1565.186
  24.220 1031.964
  24.240 1489.167
  24.260 1342.801
  24.280 1042.398
  24.300  982.764
  24.320 1303.009
  24.340 1126.040
  24.360 1163.167
  24.380  839.524
  24.400  892.771
  24.420 1000.830
  24.440  924.502
  24.460 1087.073
  24.480 1090.735
  24.500  791.474
  24.520  637.747
  24.540  842.294
  24.560  734.053
  24.580  869.579
  24.600  767.685
  24.620  581.575
  24.640  795.802
  24.660  784.947
  24.680  964.085
  24.700  778.475
  24.720  903.281
  24.740  737.810
  24.760  913.406
  24.780 1062.684
  24.800  571.231
  24.820  990.881
  24.840  950.401
  24.860  634.797
  24.880  707.291
  24.900 1045.099
  24.920  688.447
  24.940  664.232
  24.960  945.512
  24.980  802.260
  25.000  875.366
  25.020 1145.648
  25.040 1042.040
  25.060 1078.961
  25.080  997.949
  25.100 1138.083
  25.120 1009.471
  25.140  997.633
  25.160 1312.910
  25.180 1184.205
  25.200 1065.236
  25.220 1327.566
  25.240  900.623
  25.260 1109.892
  25.280  939.410
  25.300 1303.281
  25.320 1407.707
  25.340 1383.927
  25.360 1084.296
  25.380 1091.070
  25.400 1334.219
  25.420 1415.147
  25.440 1498.672
  25.460 1260.688
  25.480 1525.093
  25.500 1450.285
  25.520 1238.464
  25.540 1781.531
  25.560 1685.764
  25.580 1422.884
  25.600 1590.319
  25.620 1633.247
  25.640 1842.770
  25.660 1647.172
  25.680 1695.048
  25.700 1808.778
  25.720 1570.947
  25.740 1713.754
  25.760 1582.354
  25.780 1302.100
  25.800 1149.299
  25.820 1247.959
  25.840 1339.481
  25.860 1081.981
  25.880 1180.583
  25.900 1123.011
  25.920  881.291
  25.940 1088.954
  25.960  797.177
  25.980 1170.164
  26.000  800.085
  26.020 1020.374
  26.040  622.020
  26.060  770.276
  26.080 1001.523
  26.100  784.056
  26.120 1055.712
  26.140 1104.365
  26.160  834.714
  26.180  912.221
  26.200  924.060
  26.220  907.367
  26.240  795.890
  26.260  963.333
  26.280 1035.171
  26.300  735.112
  26.320  959.484
  26.340  942.853
  26.360 1146.830
  26.380  782.798
  26.400 1073.795
  26.420  889.217
  26.440 1169.429
  26.460  904.329
  26.480  950.886
  26.500  868.177
  26.520 1011.458
  26.540 1169.867
  26.560 1174.475
  26.580 1499.884
  26.600 1532.936
  26.620 1409.495
  26.640 1578.303
  26.660 1460.056
  26.680 1833.272
  26.700 2048.876
  26.720 2176.513
  26.740 1890.631
  26.760 2239.248
  26.780 2112.953
  26.800 2230.880
  26.820 2232.567
  26.840 2525.737
  26.860 2424.634
  26.880 2213.426
  26.900 2223.542
  26.920 2377.575
  26.940 2159.636
  26.960 2056.976
  26.980 2219.268
  27.000 1697.921
  27.020 1871.468
  27.040 1683.419
  27.060 1529.150
  27.080 1733.687
  27.100 1329.241
  27.120 1076.651
  27.140 1210.451
  27.160 1344.930
  27.180 1030.962
  27.200 1162.328
  27.220 1137.517
  27.240 1098.754
  27.260  947.160
  27.280 1153.972
  27.300 1031.809
  27.320 1005.822
  27.340 1122.791
  27.360  732.978
  27.380  884.559
  27.400  657.469
  27.420  657.229
  27.440  884.668
  27.460 1143.877
  27.480  921.065
  27.500  784.784
  27.520  956.126
  27.540  715.884
  27.560  840.080
  27.580  785.085
  27.600 1017.092
  27.620 1000.687
  27.640  714.243
  27.660  980.193
  27.680 1040.958
  27.700 1125.153
  27.720 1007.802
  27.740  902.075
  27.760 1058.174
  27.780 1001.546
  27.800 1257.155
  27.820 1237.891
  27.840 1496.536
  27.860 1557.289
  27.880 1506.993
  27.900 1489.745
  27.920 1305.472
  27.940 1476.302
  27.960 1788.177
  27.980 1889.156
  28.000 1454.603
  28.020 1587.513
  28.040 1873.829
  28.060 1452.719
  28.080 1555.211
  28.100 1460.671
  28.120 1416.154
  28.140 1415.727
  28.160 1129.627
  28.180 1367.832
  28.200 1493.554
  28.220 1323.434
  28.240 1169.046
  28.260  977.076
  28.280  986.298
  28.300 1190.096
  28.320  849.900
  28.340  755.877
  28.360  937.322
  28.380 1108.907
  28.400  691.620
  28.420  807.574
  28.440  877.947
  28.460 1111.555
  28.480 1127.512
  28.500  942.169
  28.520  979.819
  28.540  750.490
  28.560  796.779
  28.580  653.813
  28.600  714.557
  28.620 1150.446
  28.640 1042.377
  28.660  787.595
  28.680 1154.631
  28.700 1110.383
  28.720  782.165
  28.740  739.936
  28.760 1050.547
  28.780  838.494
  28.800 1107.030
  28.820  701.004
  28.840  698.777
  28.860 1054.260
  28.880  763.723
  28.900  649.276
  28.920  839.978
  28.940  836.942
  28.960 1099.644
  28.980  799.835
  29.000  805.735
  29.020  683.893
  29.040  714.772
  29.060  878.057
  29.080 1042.806
  29.100  706.122
  29.120  668.969
  29.140  652.378
  29.160  911.628
  29.180  640.862
  29.200  521.025
  29.220  597.662
  29.240  996.790
  29.260  890.493
  29.280  785.092
  29.300  698.126
  29.320  890.782
  29.340  996.611
  29.360  686.559
  29.380  689.810
  29.400  638.899
  29.420  553.664
  29.440  971.735
  29.460  628.856
  29.480  648.326
  29.500  607.952
  29.520  636.538
  29.540  775.554
  29.560  966.440
  29.580 1052.666
  29.600  781.932
  29.620  758.455
  29.640  967.414
  29.660  778.748
  29.680  930.306
  29.700  868.115
  29.720  948.476
  29.740  963.254
  29.760  969.246
  29.780 1171.194
  29.800 1114.827
  29.820 1277.239
  29.840 1173.684
  29.860 1023.255
  29.880 1306.705
  29.900 1188.389
  29.920 1304.233
  29.940 1506.036
  29.960 1330.849
  29.980 1569.980
  30.000 1587.001
  30.020 1366.581
  30.040 1374.711
  30.060 1695.504
  30.080 1311.807
  30.100 1640.937
  30.120 1309.569
  30.140 1435.340
  30.160  988.403
  30.180 1140.500
  30.200 1380.208
  30.220 1220.958
  30.240  880.258
  30.260 1032.110
  30.280 1148.603
  30.300  839.324
  30.320  817.632
  30.340  820.447
  30.360  766.598
  30.380  842.855
  30.400  933.342
  30.420  827.795
  30.440  866.949
  30.460  595.961
  30.480  603.723
  30.500  747.331
  30.520  849.073
  30.540  591.459
  30.560  521.036
  30.580  542.363
  30.600  641.642
  30.620  782.990
  30.640  603.811
  30.660  771.873
  30.680  909.173
  30.700  947.241
  30.720  921.338
  30.740  895.674
  30.760  458.870
  30.780  653.880
  30.800  951.906
  30.820  514.761
  30.840  660.945
  30.860  717.567
  30.880  501.935
  30.900  910.316
  30.920  888.032
  30.940  700.589
  30.960  816.243
  30.980  652.266
  31.000  942.212
  31.020  645.227
  31.040  885.703
  31.060  976.778
  31.080  999.569
  31.100  789.686
  31.120  743.097
  31.140 1123.830
  31.160 1077.329
  31.180 1360.685
  31.200 1121.884
  31.220 1142.674
  31.240 1043.941
  31.260 1354.300
  31.280 1317.357
  31.300 1413.964
  31.320 1418.608
  31.340 1610.996
  31.360 1467.644
  31.380 1345.469
  31.400 1623.772
  31.420 1585.312
  31.440 1483.549
  31.460 1744.774
  31.480 1511.599
  31.500 1382.671
  31.520 1245.998
  31.540 1277.536
  31.560 1276.097
  31.580 1313.771
  31.600 1684.413
  31.620 1210.967
  31.640 1695.145
  31.660 1693.557
  31.680 1433.840
  31.700 1577.035
  31.720 1459.166
  31.740 1430.963
  31.760 1467.490
  31.780 1162.276
  31.800 1282.583
  31.820 1068.406
  31.840 1540.286
  31.860 1419.251
  31.880 1279.946
  31.900 1079.359
  31.920  912.498
  31.940 1166.549
  31.960 1290.913
  31.980 1114.266
  32.000 1138.636
  32.020  913.603
  32.040 1172.655
  32.060  854.017
  32.080  945.711
  32.100 1024.803
  32.120 1155.161
  32.140 1362.477
  32.160 1121.665
  32.180 1393.736
  32.200 1289.689
  32.220 1397.318
  32.240  921.262
  32.260 1058.425
  32.280 1326.682
  32.300 1207.280
  32.320 1097.735
  32.340 1204.314
  32.360  896.975
  32.380  967.316
  32.400  726.258
  32.420 1038.634
  32.440  831.559
  32.460  546.977
  32.480  649.768
  32.500  943.800
  32.520  903.344
  32.540  943.454
  32.560  623.450
  32.580  705.988
  32.600  849.703
  32.620  786.300
  32.640  675.010
  32.660  668.698
  32.680  447.358
  32.700  556.582
  32.720  762.495
  32.740  696.382
  32.760  511.282
  32.780  480.175
  32.800  925.735
  32.820  620.936
  32.840  770.664
  32.860  496.049
  32.880  758.897
  32.900  439.575
  32.920  841.422
  32.940  510.547
  32.960  485.761
  32.980  673.253
  33.000  521.895
  33.020  752.358
  33.040  576.789
  33.060  493.267
  33.080  688.506
  33.100  769.572
  33.120  681.680
  33.140  496.168
  33.160  596.224
  33.180  903.966
  33.200  444.304
  33.220  898.149
  33.240  809.613
  33.260  610.997
  33.280  445.717
  33.300  668.420
  33.320  459.982
  33.340  593.278
  33.360  639.505
  33.380  590.326
  33.400  529.586
  33.420  546.395
  33.440  835.169
  33.460  829.749
  33.480  565.409
  33.500  743.671
  33.520  541.968
  33.540  861.951
  33.560  478.443
  33.580  900.792
  33.600  684.170
  33.620  516.313
  33.640  720.170
  33.660  436.269
  33.680  539.829
  33.700  580.299
  33.720  829.209
  33.740  741.675
  33.760  747.488
  33.780  428.727
  33.800  548.132
  33.820  643.724
  33.840  775.930
  33.860  884.456
  33.880  518.220
  33.900  626.351
  33.920  874.052
  33.940  693.884
  33.960  798.844
  33.980  865.353
  34.000  587.017
  34.020  697.335
  34.040  727.330
  34.060  739.532
  34.080  481.709
  34.100  900.827
  34.120  742.849
  34.140  614.608
  34.160  740.610
  34.180  572.567
  34.200  951.236
  34.220  857.273
  34.240  648.845
  34.260  884.268
  34.280  749.284
  34.300  817.133
  34.320  825.119
  34.340  526.276
  34.360  749.135
  34.380  620.433
  34.400 1034.499
  34.420 1031.917
  34.440  835.189
  34.460  904.294
  34.480  721.410
  34.500  697.863
  34.520  777.201
  34.540 1017.358
  34.560 1250.359
  34.580  803.005
  34.600 1064.340
  34.620 1410.926
  34.640 1188.175
  34.660 1638.881
  34.680 1241.371
  34.700 1777.546
  34.720 1513.154
  34.740 1389.335
  34.760 1602.731
  34.780 1912.186
  34.800 1480.361
  34.820 1798.335
  34.840 1826.502
  34.860 1777.422
  34.880 1789.179
  34.900 1717.480
  34.920 2005.749
  34.940 1665.833
  34.960 1904.921
  34.980 1895.427
  35.000 2177.322
  35.020 2413.513
  35.040 2109.796
  35.060 2365.221
  35.080 2391.965
  35.100 2781.498
  35.120 2799.829
  35.140 2783.868
  35.160 2601.257
  35.180 3049.186
  35.200 2630.612
  35.220 2456.556
  35.240 2333.634
  35.260 2307.469
  35.280 2122.075
  35.300 2214.078
  35.320 2187.447
  35.340 1558.853
  35.360 1658.906
  35.380 1507.659
  35.400 1572.646
  35.420 1459.871
  35.440 1052.314
  35.460 1242.954
  35.480 1159.321
  35.500  820.313
  35.520 1103.903
  35.540  920.059
  35.560  789.680
  35.580  910.983
  35.600  932.604
  35.620  986.772
  35.640  756.973
  35.660  802.927
  35.680  998.412
  35.700  936.013
  35.720  893.011
  35.740  704.922
  35.760 1006.502
  35.780  743.844
  35.800  623.531
  35.820  627.077
  35.840  896.987
  35.860  801.609
  35.880 1027.100
  35.900  985.632
  35.920  862.928
  35.940  607.454
  35.960  777.195
  35.980  861.327
  36.000  657.492
  36.020  861.621
  36.040  775.823
  36.060  891.687
  36.080  781.118
  36.100  666.767
  36.120  629.630
  36.140  803.966
  36.160  745.735
  36.180 1030.348
  36.200  679.668
  36.220  948.138
  36.240  967.818
  36.260  781.819
  36.280  984.051
  36.300 1008.062
  36.320  605.971
  36.340  660.151
  36.360  641.710
  36.380  614.608
  36.400  614.947
  36.420  776.930
  36.440  889.268
  36.460  958.966
  36.480  992.685
  36.500  952.068
  36.520 1038.522
  36.540 1012.536
  36.560  804.363
  36.580 1186.785
  36.600 1220.859
  36.620 1078.932
  36.640 1104.179
  36.660 1013.646
  36.680 1310.099
  36.700  862.016
  36.720 1050.111
  36.740  987.622
  36.760  825.779
  36.780 1247.361
  36.800  922.650
  36.820 1206.346
  36.840  977.014
  36.860  792.535
  36.880 1064.794
  36.900 1217.779
  36.920 1177.837
  36.940 1101.057
  36.960  674.563
  36.980  937.637
  37.000  897.739
  37.020 1057.850
  37.040  830.735
  37.060  703.631
  37.080  897.511
  37.100 1060.569
  37.120  899.011
  37.140  897.167
  37.160  868.391
  37.180  896.943
  37.200  601.779
  37.220  598.908
  37.240  741.225
  37.260 1010.225
  37.280  990.389
  37.300  566.266
  37.320  872.744
  37.340  994.366
  37.360  964.741
  37.380  516.804
  37.400  699.444
  37.420  926.224
  37.440  914.353
  37.460  740.598
  37.480  924.708
  37.500  980.635
  37.520  888.218
  37.540  718.762
  37.560  673.955
  37.580 1066.928
  37.600  710.653
  37.620 1192.042
  37.640  732.968
  37.660  888.312
  37.680 1108.710
  37.700 1044.159
  37.720 1091.995
  37.740 1124.974
  37.760  859.622
  37.780 1023.722
  37.800  967.270
  37.820 1195.630
  37.840  969.941
  37.860 1139.007
  37.880 1203.480
  37.900 1173.241
  37.920 1031.128
  37.940 1220.805
  37.960  936.505
  37.980 1250.137
  38.000  917.796
  38.020 1120.423
  38.040 1040.536
  38.060  998.333
  38.080 1086.028
  38.100 1255.065
  38.120  955.143
  38.140 1128.887
  38.160  944.451
  38.180  822.484
  38.200 1128.746
  38.220 1105.702
  38.240  823.845
  38.260  651.841
  38.280 1048.508
  38.300  829.407
  38.320  729.685
  38.340  802.725
  38.360  783.985
  38.380  896.043
  38.400  673.927
  38.420  838.009
  38.440  522.680
  38.460  841.394
  38.480  679.377
  38.500  832.804
  38.520  856.105
  38.540  525.667
  38.560  558.637
  38.580  881.256
  38.600  612.347
  38.620  729.685
  38.640  630.238
  38.660  867.508
  38.680  409.358
  38.700  753.532
  38.720  428.750
  38.740  607.791
  38.760  422.957
  38.780  896.004
  38.800  547.955
  38.820  400.909
  38.840  649.786
  38.860  831.305
  38.880  380.331
  38.900  654.574
  38.920  687.817
  38.940  643.722
  38.960  866.164
  38.980  555.540
  39.000  862.659
  39.020  596.335
  39.040  598.187
  39.060  780.726
  39.080  819.670
  39.100  401.429
  39.120  602.270
  39.140  864.020
  39.160  414.498
  39.180  371.561
  39.200  717.293
  39.220  504.055
  39.240  358.905
  39.260  737.704
  39.280  443.353
  39.300  651.045
  39.320  829.488
  39.340  458.305
  39.360  773.609
  39.380  716.826
  39.400  422.331
  39.420  443.713
  39.440  561.755
  39.460  637.460
  39.480  638.332
  39.500  804.683
  39.520  691.210
  39.540  547.262
  39.560  597.405
  39.580  511.618
  39.600  677.310
  39.620  887.012
  39.640  815.958
  39.660  711.757
  39.680  795.577
  39.700  594.187
  39.720  370.491
  39.740  764.430
  39.760  676.496
  39.780  699.653
  39.800  852.020
  39.820  672.729
  39.840  886.743
  39.860  546.974
  39.880  584.300
  39.900  874.781
  39.920  576.100
  39.940  896.857
  39.960  641.452
  39.980  851.912
  40.000  587.538
  40.020  763.214
  40.040  823.890
  40.060  521.191
  40.080  717.764
  40.100  832.305
  40.120  832.537
  40.140  540.392
  40.160  926.399
  40.180  648.290
  40.200  796.301
  40.220  815.797
  40.240  654.568
  40.260  685.425
  40.280 1026.124
  40.300  629.469
  40.320  681.042
  40.340 1010.278
  40.360  711.181
  40.380  832.197
  40.400  883.494
  40.420  978.287
  40.440  997.320
  40.460  566.112
  40.480  887.135
  40.500  934.264
  40.520  899.840
  40.540  817.774
  40.560  711.212
  40.580  593.593
  40.600  848.565
  40.620  874.851
  40.640  675.953
  40.660  908.838
  40.680  624.180
  40.700  543.400
  40.720  854.295
  40.740  851.219
  40.760  763.518
  40.780  622.856
  40.800  911.694
  40.820  762.450
  40.840  891.312
  40.860  912.042
  40.880  983.770
  40.900 1046.663
  40.920 1018.659
  40.940 1006.589
  40.960  671.164
  40.980 1071.453
  41.000  867.778
  41.020  750.217
  41.040 1061.427
  41.060  622.430
  41.080  953.343
  41.100  807.316
  41.120  746.112
  41.140  931.682
  41.160  623.348
  41.180  925.408
  41.200  667.256
  41.220  707.375
  41.240  710.857
  41.260 1012.827
  41.280  810.614
  41.300  973.907
  41.320  831.260
  41.340  997.532
  41.360  954.642
  41.380  529.348
  41.400  549.180
  41.420  934.877
  41.440  736.638
  41.460  915.808
  41.480  614.192
  41.500  534.280
  41.520  511.950
  41.540  914.577
  41.560  885.854
  41.580  732.734
  41.600  541.825
  41.620  551.317
  41.640  873.803
  41.660  839.316
  41.680  822.316
  41.700  797.809
  41.720  715.771
  41.740  938.409
  41.760  569.289
  41.780  571.380
  41.800  614.448
  41.820  645.013
  41.840  465.103
  41.860  771.062
  41.880  498.431
  41.900  954.444
  41.920  688.919
  41.940  485.738
  41.960  868.771
  41.980  571.101
  42.000  788.648
  42.020 1031.507
  42.040  584.175
  42.060  609.217
  42.080  836.011
  42.100 1013.895
  42.120  877.845
  42.140  969.281
  42.160  926.103
  42.180  775.511
  42.200 1028.334
  42.220  921.332
  42.240 1003.232
  42.260  910.018
  42.280 1077.648
  42.300  752.242
  42.320  955.649
  42.340  979.766
  42.360  937.911
  42.380  925.986
  42.400  795.989
  42.420 1104.269
  42.440 1021.858
  42.460  902.398
  42.480  875.305
  42.500 1124.090
  42.520  980.756
  42.540 1316.701
  42.560 1020.265
  42.580  891.143
  42.600 1184.766
  42.620 1186.894
  42.640  872.111
  42.660 1133.257
  42.680  953.166
  42.700 1051.624
  42.720 1155.467
  42.740 1061.495
  42.760  774.360
  42.780  602.643
  42.800  563.099
  42.820  633.485
  42.840  802.179
  42.860  480.076
  42.880  520.655
  42.900  734.458
  42.920  513.076
  42.940  408.931
  42.960  462.589
  42.980  844.813
  43.000  755.327
  43.020  823.487
  43.040  391.397
  43.060  520.794
  43.080  797.667
  43.100  745.045
  43.120  662.897
  43.140  342.315
  43.160  719.272
  43.180  761.131
  43.200  400.520
  43.220  530.855
  43.240  635.540
  43.260  550.945
  43.280  473.875
  43.300  742.109
  43.320  335.266
  43.340  586.492
  43.360  549.609
  43.380  512.735
  43.400  597.954
  43.420  683.149
  43.440  800.053
  43.460  748.106
  43.480  673.228
  43.500  771.763
  43.520  582.160
  43.540  691.845
  43.560  323.432
  43.580  305.776
  43.600  376.415
  43.620  433.324
  43.640  418.979
  43.660  637.797
  43.680  525.710
  43.700  565.103
  43.720  571.594
  43.740  517.875
  43.760  500.574
  43.780  668.218
  43.800  838.899
  43.820  433.479
  43.840  773.367
  43.860  642.789
  43.880  876.446
  43.900  698.951
  43.920  509.393
  43.940  770.004
  43.960  698.905
  43.980  426.852
  44.000  727.326
