Sample	
Comments	
Filename	C:\WINDMAX\DATA\USERS\GEO\GEO_ER~1\Pyrenees\BULKMA~1\2M1-std2.raw
Goniometer	Ultima IV In-plane
Attachment	Auto sample changer (10 samples)
ScanningMode	2Theta/Theta
ScanningType	Continuos Scanning
X-Ray	40kV/44mA
DivSlit	2/3deg.
DivH.L.Slit	10mm
SctSlit	2/3deg.
RecSlit	0.3mm
Start	16
Stop	44
Step	0.02
Speed	0.3
Offset	0
  16.000  552.466
  16.020  637.265
  16.040  516.992
  16.060  872.528
  16.080  556.152
  16.100  635.101
  16.120  491.334
  16.140  775.593
  16.160  744.689
  16.180  504.785
  16.200  729.070
  16.220  932.952
  16.240  453.913
  16.260  473.235
  16.280  504.318
  16.300  570.695
  16.320  438.669
  16.340  683.048
  16.360  789.874
  16.380  787.531
  16.400  881.436
  16.420  863.179
  16.440  809.923
  16.460  463.258
  16.480  801.939
  16.500  486.885
  16.520  548.040
  16.540  596.321
  16.560  819.471
  16.580  649.824
  16.600  545.222
  16.620  812.215
  16.640  826.325
  16.660  475.559
  16.680  551.102
  16.700  515.214
  16.720  609.046
  16.740  748.018
  16.760  529.263
  16.780  677.585
  16.800  590.128
  16.820  704.172
  16.840  626.080
  16.860  635.171
  16.880  525.169
  16.900  424.065
  16.920  385.486
  16.940  794.496
  16.960  616.010
  16.980  498.370
  17.000  614.686
  17.020  431.739
  17.040  435.444
  17.060  803.745
  17.080  710.701
  17.100  492.820
  17.120  427.709
  17.140  773.791
  17.160  705.124
  17.180  850.676
  17.200  375.927
  17.220  413.505
  17.240  614.867
  17.260  473.366
  17.280  572.828
  17.300  650.812
  17.320  576.307
  17.340  722.411
  17.360  644.975
  17.380  738.531
  17.400  806.461
  17.420  462.494
  17.440  475.694
  17.460  698.078
  17.480  944.647
  17.500  954.764
  17.520  869.179
  17.540  696.093
  17.560  966.895
  17.580  994.508
  17.600 1036.032
  17.620  837.183
  17.640  875.572
  17.660  562.321
  17.680 1020.689
  17.700 1011.231
  17.720  986.293
  17.740  779.645
  17.760  808.422
  17.780  814.144
  17.800  870.155
  17.820 1307.765
  17.840 1357.027
  17.860 1419.346
  17.880 1334.781
  17.900 1181.409
  17.920 1074.442
  17.940 1500.496
  17.960 1418.862
  17.980 1363.164
  18.000 1461.003
  18.020 1282.290
  18.040 1168.379
  18.060 1476.253
  18.080 1180.698
  18.100 1427.569
  18.120 1081.847
  18.140 1262.766
  18.160 1203.408
  18.180 1173.180
  18.200 1139.153
  18.220  726.005
  18.240 1013.839
  18.260  747.596
  18.280  716.852
  18.300  657.806
  18.320  713.504
  18.340  799.832
  18.360  877.082
  18.380  744.464
  18.400  514.463
  18.420  669.376
  18.440  870.432
  18.460  637.541
  18.480  542.627
  18.500  991.863
  18.520  765.661
  18.540  866.455
  18.560  507.831
  18.580  661.434
  18.600 1008.238
  18.620  866.826
  18.640  651.642
  18.660  652.981
  18.680  851.303
  18.700  880.224
  18.720  633.403
  18.740  710.226
  18.760  686.399
  18.780  956.847
  18.800  924.899
  18.820  641.493
  18.840  918.140
  18.860  569.446
  18.880  759.413
  18.900  493.046
  18.920  633.243
  18.940  617.333
  18.960  468.056
  18.980  742.957
  19.000  553.038
  19.020  528.993
  19.040  510.941
  19.060  702.755
  19.080  941.080
  19.100  951.519
  19.120  861.855
  19.140  854.730
  19.160  638.041
  19.180  929.109
  19.200  577.372
  19.220  888.478
  19.240  595.320
  19.260  926.727
  19.280  700.581
  19.300  611.970
  19.320  666.772
  19.340  545.729
  19.360  668.031
  19.380  606.143
  19.400 1011.539
  19.420  502.575
  19.440  843.387
  19.460  613.542
  19.480  519.236
  19.500  856.460
  19.520  874.020
  19.540  805.568
  19.560  789.824
  19.580  738.986
  19.600  971.384
  19.620 1164.861
  19.640  866.325
  19.660 1070.311
  19.680  863.995
  19.700  979.566
  19.720 1346.735
  19.740 1477.516
  19.760 1548.055
  19.780 1593.274
  19.800 1585.900
  19.820 1452.462
  19.840 1853.540
  19.860 1667.742
  19.880 2266.207
  19.900 2039.832
  19.920 2061.125
  19.940 2099.427
  19.960 2475.419
  19.980 2698.382
  20.000 2910.714
  20.020 2718.617
  20.040 2444.564
  20.060 2372.576
  20.080 2333.132
  20.100 2291.661
  20.120 2083.520
  20.140 1806.283
  20.160 1723.028
  20.180 1850.947
  20.200 1487.176
  20.220 1546.394
  20.240 1264.461
  20.260 1352.614
  20.280 1252.735
  20.300  933.689
  20.320 1392.880
  20.340  898.797
  20.360  951.623
  20.380  889.038
  20.400  979.614
  20.420  944.762
  20.440  803.887
  20.460  792.469
  20.480 1080.354
  20.500  780.820
  20.520 1193.195
  20.540  813.902
  20.560  919.182
  20.580  783.895
  20.600 1008.452
  20.620  736.683
  20.640  898.653
  20.660 1254.792
  20.680 1305.685
  20.700 1092.349
  20.720 1298.541
  20.740 1313.515
  20.760  967.890
  20.780 1078.837
  20.800 1173.961
  20.820 1132.505
  20.840 1218.040
  20.860 1010.695
  20.880 1375.693
  20.900 1113.980
  20.920 1144.472
  20.940  777.837
  20.960 1110.794
  20.980  884.616
  21.000  802.383
  21.020  859.746
  21.040  999.439
  21.060  707.646
  21.080  923.970
  21.100  810.562
  21.120 1079.228
  21.140  639.493
  21.160  808.739
  21.180 1048.767
  21.200  579.593
  21.220  581.568
  21.240  650.473
  21.260 1024.619
  21.280  560.120
  21.300  763.948
  21.320  912.801
  21.340 1011.554
  21.360  664.477
  21.380  641.885
  21.400  924.483
  21.420  732.157
  21.440  909.132
  21.460 1110.215
  21.480  783.450
  21.500  675.113
  21.520  880.209
  21.540 1010.506
  21.560  940.931
  21.580  816.053
  21.600 1000.378
  21.620  914.240
  21.640  972.523
  21.660  829.495
  21.680 1119.023
  21.700 1168.339
  21.720  817.964
  21.740 1346.786
  21.760  889.439
  21.780 1013.131
  21.800 1054.221
  21.820 1205.436
  21.840  883.996
  21.860 1225.441
  21.880  680.173
  21.900 1053.783
  21.920 1153.665
  21.940  942.776
  21.960  632.104
  21.980 1011.032
  22.000  897.851
  22.020  797.153
  22.040  913.221
  22.060  595.039
  22.080  742.938
  22.100  648.028
  22.120  853.534
  22.140  552.873
  22.160  620.620
  22.180  597.715
  22.200  851.854
  22.220  897.050
  22.240  977.310
  22.260  741.721
  22.280 1050.455
  22.300  749.979
  22.320  643.048
  22.340  721.014
  22.360  619.173
  22.380  710.070
  22.400  655.696
  22.420  911.720
  22.440  940.452
  22.460  843.506
  22.480 1068.916
  22.500 1163.051
  22.520  952.395
  22.540 1013.370
  22.560  701.428
  22.580 1162.425
  22.600  696.109
  22.620 1140.046
  22.640  770.245
  22.660  707.869
  22.680  863.806
  22.700  739.743
  22.720  811.845
  22.740  934.179
  22.760 1093.507
  22.780  944.622
  22.800 1251.747
  22.820 1050.568
  22.840 1233.033
  22.860  992.984
  22.880 1376.621
  22.900 1408.037
  22.920 1510.828
  22.940 1350.645
  22.960 1610.534
  22.980 1368.247
  23.000 1737.620
  23.020 1393.621
  23.040 1526.616
  23.060 1494.547
  23.080 1657.514
  23.100 1842.928
  23.120 1534.060
  23.140 1736.111
  23.160 1198.579
  23.180 1431.268
  23.200 1492.073
  23.220 1385.493
  23.240 1034.648
  23.260 1345.492
  23.280 1122.366
  23.300  958.489
  23.320 1109.263
  23.340  799.282
  23.360  683.747
  23.380  833.273
  23.400  937.941
  23.420  929.978
  23.440  975.103
  23.460  916.782
  23.480  740.021
  23.500  694.486
  23.520 1037.607
  23.540 1106.444
  23.560  873.704
  23.580 1037.292
  23.600  830.898
  23.620  688.614
  23.640 1048.843
  23.660 1213.540
  23.680  797.780
  23.700  868.759
  23.720  988.416
  23.740 1178.328
  23.760 1134.611
  23.780 1307.867
  23.800 1226.487
  23.820 1346.099
  23.840 1442.797
  23.860 1474.826
  23.880 1354.950
  23.900 1208.204
  23.920 1518.285
  23.940 1729.738
  23.960 1731.506
  23.980 1691.333
  24.000 1808.207
  24.020 1779.577
  24.040 1674.840
  24.060 1488.250
  24.080 1633.264
  24.100 1252.553
  24.120 1161.296
  24.140 1135.378
  24.160 1181.235
  24.180 1477.153
  24.200 1547.314
  24.220 1256.143
  24.240 1270.416
  24.260 1309.765
  24.280 1059.308
  24.300 1282.513
  24.320  959.068
  24.340  926.519
  24.360 1145.151
  24.380  708.688
  24.400 1165.263
  24.420  918.627
  24.440  678.444
  24.460  940.822
  24.480  632.439
  24.500  902.924
  24.520  927.577
  24.540  851.226
  24.560  700.740
  24.580  565.950
  24.600 1046.782
  24.620  815.488
  24.640  730.987
  24.660  712.446
  24.680  607.787
  24.700  693.923
  24.720 1058.283
  24.740  772.820
  24.760  869.453
  24.780  831.248
  24.800 1052.987
  24.820  645.659
  24.840  803.115
  24.860 1022.615
  24.880  597.722
  24.900  872.561
  24.920 1008.628
  24.940 1087.588
  24.960  915.846
  24.980 1099.201
  25.000  943.421
  25.020 1086.632
  25.040  805.526
  25.060  998.888
  25.080 1094.544
  25.100 1261.840
  25.120 1144.136
  25.140  759.283
  25.160  833.572
  25.180 1006.327
  25.200  849.584
  25.220 1186.921
  25.240 1252.477
  25.260  888.249
  25.280  985.636
  25.300 1053.288
  25.320 1228.990
  25.340 1114.910
  25.360 1046.238
  25.380 1028.440
  25.400 1101.035
  25.420 1151.541
  25.440 1052.493
  25.460 1108.639
  25.480 1412.829
  25.500 1338.906
  25.520 1345.555
  25.540 1636.550
  25.560 1512.669
  25.580 1815.192
  25.600 1515.224
  25.620 1709.438
  25.640 1892.967
  25.660 1786.765
  25.680 1467.067
  25.700 1426.045
  25.720 1605.103
  25.740 1540.819
  25.760 1433.996
  25.780 1433.342
  25.800 1238.158
  25.820 1453.542
  25.840 1057.072
  25.860 1168.408
  25.880  928.853
  25.900 1205.799
  25.920  863.521
  25.940 1127.543
  25.960 1132.177
  25.980  832.145
  26.000  869.348
  26.020  931.686
  26.040  954.489
  26.060  977.877
  26.080 1006.054
  26.100 1050.930
  26.120  810.295
  26.140  707.390
  26.160  913.247
  26.180  646.636
  26.200  749.986
  26.220  897.465
  26.240  890.867
  26.260 1102.476
  26.280  641.103
  26.300 1110.002
  26.320 1087.296
  26.340  737.133
  26.360  854.995
  26.380 1177.179
  26.400  822.134
  26.420 1153.822
  26.440 1159.609
  26.460 1295.305
  26.480 1018.635
  26.500 1236.661
  26.520 1307.687
  26.540  982.371
  26.560 1182.439
  26.580 1218.314
  26.600 1563.365
  26.620 1736.000
  26.640 1454.569
  26.660 1692.344
  26.680 1800.084
  26.700 2013.790
  26.720 1902.229
  26.740 2142.461
  26.760 2066.357
  26.780 2028.539
  26.800 2203.946
  26.820 2172.689
  26.840 2412.328
  26.860 2276.744
  26.880 2227.951
  26.900 2243.575
  26.920 2331.879
  26.940 2407.219
  26.960 2147.636
  26.980 2091.938
  27.000 1612.910
  27.020 1898.091
  27.040 1883.361
  27.060 1728.715
  27.080 1684.052
  27.100 1580.241
  27.120 1349.813
  27.140 1434.405
  27.160 1228.107
  27.180  943.438
  27.200 1019.026
  27.220  863.705
  27.240 1209.528
  27.260  832.907
  27.280 1145.579
  27.300 1117.931
  27.320  882.089
  27.340  932.493
  27.360  791.108
  27.380 1083.855
  27.400  997.917
  27.420 1042.144
  27.440  876.088
  27.460 1129.507
  27.480 1143.697
  27.500  650.543
  27.520 1190.878
  27.540  798.864
  27.560  673.166
  27.580  780.496
  27.600  744.611
  27.620 1096.232
  27.640  883.392
  27.660 1147.926
  27.680  974.453
  27.700 1101.546
  27.720  799.194
  27.740 1152.076
  27.760  839.881
  27.780  974.714
  27.800 1101.459
  27.820 1249.188
  27.840 1136.333
  27.860 1165.494
  27.880 1486.567
  27.900 1679.552
  27.920 1456.489
  27.940 1463.936
  27.960 1698.116
  27.980 1661.526
  28.000 1776.468
  28.020 1577.475
  28.040 1698.121
  28.060 1599.541
  28.080 1705.819
  28.100 1555.043
  28.120 1448.913
  28.140 1442.312
  28.160 1575.479
  28.180 1066.658
  28.200 1406.440
  28.220 1039.836
  28.240 1362.834
  28.260 1168.053
  28.280 1247.478
  28.300 1137.999
  28.320 1128.367
  28.340 1075.097
  28.360 1030.348
  28.380  747.267
  28.400  806.544
  28.420  677.834
  28.440  819.141
  28.460  942.026
  28.480  895.956
  28.500  779.180
  28.520 1032.513
  28.540  903.339
  28.560 1035.220
  28.580  868.762
  28.600 1045.418
  28.620  918.620
  28.640  711.128
  28.660 1014.373
  28.680 1085.173
  28.700 1039.222
  28.720 1099.333
  28.740  828.355
  28.760  983.127
  28.780  665.085
  28.800 1162.923
  28.820  981.669
  28.840 1117.842
  28.860  677.231
  28.880  808.932
  28.900  653.498
  28.920 1011.656
  28.940  941.054
  28.960  929.896
  28.980 1111.503
  29.000  627.587
  29.020 1061.969
  29.040  675.643
  29.060  942.202
  29.080  613.325
  29.100 1099.704
  29.120  983.018
  29.140  605.647
  29.160  737.810
  29.180  971.344
  29.200  705.685
  29.220  599.703
  29.240  837.848
  29.260  935.375
  29.280 1016.297
  29.300  939.780
  29.320  683.405
  29.340  854.045
  29.360  704.819
  29.380  742.162
  29.400  821.473
  29.420  684.398
  29.440  504.865
  29.460  527.019
  29.480  997.268
  29.500  705.052
  29.520  635.000
  29.540  663.121
  29.560  535.423
  29.580  926.066
  29.600 1009.269
  29.620  799.540
  29.640  751.010
  29.660  657.286
  29.680  797.061
  29.700 1065.508
  29.720 1047.213
  29.740 1023.474
  29.760  813.861
  29.780 1004.613
  29.800  846.916
  29.820 1252.005
  29.840 1398.652
  29.860 1381.747
  29.880 1452.493
  29.900 1529.792
  29.920 1533.649
  29.940 1321.486
  29.960 1706.124
  29.980 1442.773
  30.000 1409.936
  30.020 1461.923
  30.040 1456.597
  30.060 1284.951
  30.080 1716.757
  30.100 1173.761
  30.120 1487.190
  30.140 1440.281
  30.160 1450.991
  30.180 1154.273
  30.200  911.860
  30.220 1159.898
  30.240 1163.464
  30.260  888.039
  30.280 1128.419
  30.300  785.258
  30.320 1071.011
  30.340  616.003
  30.360 1016.973
  30.380  714.174
  30.400  891.583
  30.420  852.824
  30.440  990.659
  30.460  495.936
  30.480  885.046
  30.500  729.807
  30.520  985.639
  30.540  973.114
  30.560  758.251
  30.580  769.248
  30.600  966.616
  30.620  898.081
  30.640  600.412
  30.660  722.275
  30.680  625.320
  30.700  513.994
  30.720  829.736
  30.740  761.574
  30.760  624.093
  30.780  677.312
  30.800  484.988
  30.820  808.456
  30.840  960.259
  30.860  781.472
  30.880  793.809
  30.900  518.231
  30.920  899.119
  30.940 1034.069
  30.960  584.323
  30.980  654.240
  31.000  923.337
  31.020  694.738
  31.040  750.568
  31.060  799.489
  31.080 1028.991
  31.100 1137.125
  31.120  895.366
  31.140 1094.863
  31.160  888.632
  31.180 1129.712
  31.200  945.364
  31.220 1192.283
  31.240 1484.597
  31.260 1567.839
  31.280 1475.486
  31.300 1510.539
  31.320 1318.378
  31.340 1694.988
  31.360 1359.018
  31.380 1300.209
  31.400 1389.270
  31.420 1770.958
  31.440 1359.559
  31.460 1443.872
  31.480 1734.108
  31.500 1550.139
  31.520 1692.335
  31.540 1253.669
  31.560 1248.084
  31.580 1587.702
  31.600 1443.437
  31.620 1644.255
  31.640 1547.319
  31.660 1209.230
  31.680 1444.894
  31.700 1618.106
  31.720 1614.375
  31.740 1606.818
  31.760 1205.329
  31.780 1278.145
  31.800 1610.419
  31.820 1372.600
  31.840 1591.936
  31.860 1044.032
  31.880 1089.118
  31.900 1133.635
  31.920  937.988
  31.940  896.695
  31.960 1357.580
  31.980  993.555
  32.000 1004.987
  32.020  931.619
  32.040  914.422
  32.060 1202.366
  32.080 1311.500
  32.100  898.594
  32.120 1030.279
  32.140 1400.929
  32.160 1002.888
  32.180 1039.424
  32.200 1182.416
  32.220  916.825
  32.240  932.926
  32.260  917.526
  32.280 1094.548
  32.300 1005.919
  32.320 1170.356
  32.340 1014.031
  32.360  753.896
  32.380 1035.958
  32.400 1026.283
  32.420 1033.587
  32.440  999.831
  32.460  995.810
  32.480  637.140
  32.500  778.061
  32.520  603.918
  32.540  947.302
  32.560  549.530
  32.580  847.242
  32.600  787.555
  32.620  707.966
  32.640  547.381
  32.660  472.692
  32.680  847.177
  32.700  894.674
  32.720  848.559
  32.740  476.031
  32.760  485.144
  32.780  423.598
  32.800  787.959
  32.820  667.976
  32.840  480.807
  32.860  704.666
  32.880  761.634
  32.900  811.184
  32.920  837.732
  32.940  912.307
  32.960  705.553
  32.980  787.208
  33.000  901.805
  33.020  744.321
  33.040  855.555
  33.060  553.907
  33.080  471.125
  33.100  819.027
  33.120  692.350
  33.140  464.763
  33.160  582.844
  33.180  495.684
  33.200  690.656
  33.220  565.662
  33.240  517.610
  33.260  392.838
  33.280  560.514
  33.300  686.544
  33.320  757.262
  33.340  740.488
  33.360  792.377
  33.380  774.486
  33.400  689.286
  33.420  417.894
  33.440  761.620
  33.460  589.146
  33.480  526.841
  33.500  865.294
  33.520  554.683
  33.540  464.823
  33.560  787.393
  33.580  427.651
  33.600  382.360
  33.620  563.853
  33.640  428.941
  33.660  803.198
  33.680  876.268
  33.700  878.108
  33.720  718.323
  33.740  818.752
  33.760  770.143
  33.780  887.000
  33.800  599.048
  33.820  867.463
  33.840  711.336
  33.860  472.560
  33.880  873.064
  33.900  739.283
  33.920  691.672
  33.940  800.767
  33.960  770.475
  33.980  877.394
  34.000  571.773
  34.020  568.114
  34.040  570.577
  34.060  925.884
  34.080  622.811
  34.100  785.421
  34.120  638.326
  34.140  506.314
  34.160  831.055
  34.180  964.231
  34.200  553.203
  34.220  561.226
  34.240  587.798
  34.260  892.918
  34.280  492.710
  34.300  921.945
  34.320  939.687
  34.340  896.431
  34.360  857.865
  34.380  734.737
  34.400  562.820
  34.420  816.879
  34.440  620.284
  34.460  655.951
  34.480  969.898
  34.500  664.365
  34.520  678.352
  34.540  936.497
  34.560  864.036
  34.580 1193.271
  34.600 1257.219
  34.620 1122.954
  34.640 1070.993
  34.660 1369.425
  34.680 1244.263
  34.700 1501.442
  34.720 1571.487
  34.740 1806.087
  34.760 1780.225
  34.780 1805.588
  34.800 1627.706
  34.820 1523.402
  34.840 1729.090
  34.860 1688.397
  34.880 1836.509
  34.900 1862.503
  34.920 1901.839
  34.940 1813.765
  34.960 2103.353
  34.980 2288.310
  35.000 2025.543
  35.020 2430.417
  35.040 2276.081
  35.060 2249.126
  35.080 2435.251
  35.100 2394.508
  35.120 2716.908
  35.140 2655.215
  35.160 3042.014
  35.180 2972.325
  35.200 2992.622
  35.220 2806.565
  35.240 2332.941
  35.260 2319.827
  35.280 2263.873
  35.300 2151.365
  35.320 1834.499
  35.340 1787.538
  35.360 1669.428
  35.380 1366.468
  35.400 1198.118
  35.420 1514.648
  35.440 1395.201
  35.460 1292.737
  35.480 1080.738
  35.500 1193.482
  35.520 1095.356
  35.540 1156.647
  35.560  974.481
  35.580  783.719
  35.600  755.759
  35.620 1075.337
  35.640  960.793
  35.660  684.943
  35.680  982.085
  35.700  812.799
  35.720  639.838
  35.740  908.338
  35.760  650.869
  35.780  852.888
  35.800 1037.117
  35.820  885.954
  35.840  612.131
  35.860  742.229
  35.880  888.033
  35.900  749.190
  35.920  869.628
  35.940  829.439
  35.960 1057.347
  35.980  707.556
  36.000  975.740
  36.020  787.216
  36.040  772.435
  36.060  978.742
  36.080  871.537
  36.100  643.958
  36.120 1051.215
  36.140  811.307
  36.160  929.320
  36.180  863.789
  36.200 1093.171
  36.220 1063.225
  36.240  662.038
  36.260  872.635
  36.280  839.023
  36.300  991.428
  36.320  769.788
  36.340  771.453
  36.360  680.503
  36.380  925.242
  36.400  856.223
  36.420  872.942
  36.440  770.616
  36.460 1192.272
  36.480  908.144
  36.500 1207.295
  36.520  997.546
  36.540 1152.926
  36.560 1041.209
  36.580 1121.001
  36.600 1129.098
  36.620 1183.097
  36.640 1217.053
  36.660 1239.215
  36.680 1352.898
  36.700  877.867
  36.720 1195.618
  36.740 1280.484
  36.760 1160.170
  36.780 1026.818
  36.800 1219.215
  36.820 1154.790
  36.840 1283.193
  36.860 1077.302
  36.880  857.106
  36.900 1144.845
  36.920 1172.200
  36.940  776.182
  36.960  682.691
  36.980  995.767
  37.000 1171.922
  37.020  981.483
  37.040  824.318
  37.060  973.346
  37.080  780.119
  37.100  712.174
  37.120  957.051
  37.140  745.074
  37.160  957.115
  37.180  949.836
  37.200  835.796
  37.220  787.708
  37.240  591.303
  37.260  952.713
  37.280  966.246
  37.300  685.886
  37.320  887.674
  37.340  870.079
  37.360  897.518
  37.380  585.096
  37.400  708.312
  37.420  610.146
  37.440  677.711
  37.460  800.348
  37.480  916.854
  37.500 1092.930
  37.520  856.733
  37.540  835.933
  37.560  767.042
  37.580 1059.553
  37.600  973.357
  37.620  782.632
  37.640  853.712
  37.660 1109.049
  37.680  915.661
  37.700 1088.585
  37.720 1134.013
  37.740  818.178
  37.760 1354.294
  37.780  932.125
  37.800 1362.405
  37.820 1354.946
  37.840 1196.143
  37.860 1004.594
  37.880  962.051
  37.900 1126.301
  37.920 1194.208
  37.940 1432.117
  37.960 1094.593
  37.980  925.009
  38.000 1020.382
  38.020 1382.354
  38.040 1262.078
  38.060 1155.788
  38.080  999.355
  38.100  774.644
  38.120 1139.829
  38.140 1070.094
  38.160  751.803
  38.180  851.943
  38.200 1092.605
  38.220  928.851
  38.240  881.660
  38.260  957.940
  38.280  965.075
  38.300  953.355
  38.320  635.673
  38.340  909.806
  38.360  623.788
  38.380  681.231
  38.400  730.867
  38.420  947.304
  38.440  922.710
  38.460  887.532
  38.480  900.731
  38.500  580.017
  38.520  577.114
  38.540  754.140
  38.560  912.742
  38.580  580.506
  38.600  749.747
  38.620  549.709
  38.640  736.283
  38.660  801.690
  38.680  465.687
  38.700  631.627
  38.720  719.916
  38.740  851.690
  38.760  702.296
  38.780  823.655
  38.800  439.179
  38.820  734.453
  38.840  461.315
  38.860  774.979
  38.880  425.957
  38.900  830.087
  38.920  647.988
  38.940  741.006
  38.960  412.249
  38.980  357.761
  39.000  453.547
  39.020  501.047
  39.040  525.537
  39.060  678.199
  39.080  322.442
  39.100  465.082
  39.120  576.268
  39.140  449.949
  39.160  743.825
  39.180  510.009
  39.200  885.193
  39.220  668.609
  39.240  731.029
  39.260  546.042
  39.280  735.862
  39.300  578.451
  39.320  427.059
  39.340  492.554
  39.360  592.178
  39.380  512.384
  39.400  661.866
  39.420  787.088
  39.440  423.763
  39.460  742.481
  39.480  393.447
  39.500  348.312
  39.520  657.004
  39.540  875.176
  39.560  654.704
  39.580  726.694
  39.600  702.468
  39.620  523.343
  39.640  670.205
  39.660  547.792
  39.680  827.009
  39.700  798.773
  39.720  466.414
  39.740  595.942
  39.760  658.721
  39.780  853.362
  39.800  446.296
  39.820  661.696
  39.840  429.238
  39.860  868.579
  39.880  777.426
  39.900  396.830
  39.920  785.842
  39.940  733.790
  39.960  621.671
  39.980  552.993
  40.000  707.985
  40.020  911.903
  40.040  705.830
  40.060  871.026
  40.080  821.417
  40.100  515.830
  40.120  576.137
  40.140  566.253
  40.160  870.719
  40.180  643.301
  40.200  593.440
  40.220 1038.376
  40.240  696.174
  40.260  955.448
  40.280  849.365
  40.300  995.865
  40.320  637.101
  40.340  715.208
  40.360  829.905
  40.380  744.426
  40.400 1047.478
  40.420  608.706
  40.440  999.509
  40.460  701.321
  40.480  909.669
  40.500  559.919
  40.520  900.849
  40.540 1046.141
  40.560  518.485
  40.580  728.115
  40.600 1017.003
  40.620  870.967
  40.640  896.266
  40.660  512.595
  40.680  496.274
  40.700  560.866
  40.720  624.325
  40.740  800.544
  40.760  810.479
  40.780  636.330
  40.800  889.714
  40.820 1037.462
  40.840  738.110
  40.860  728.019
  40.880 1099.148
  40.900  767.363
  40.920  774.705
  40.940 1127.192
  40.960 1157.383
  40.980  850.709
  41.000  678.129
  41.020  802.530
  41.040  694.775
  41.060  858.040
  41.080  618.374
  41.100  603.885
  41.120  856.802
  41.140  784.722
  41.160  588.208
  41.180 1067.214
  41.200  934.485
  41.220  696.088
  41.240  655.695
  41.260  981.632
  41.280  786.554
  41.300  587.142
  41.320  639.147
  41.340  875.426
  41.360  735.955
  41.380  530.640
  41.400  709.321
  41.420 1042.486
  41.440  976.151
  41.460  875.787
  41.480  797.091
  41.500  926.368
  41.520  691.417
  41.540  678.074
  41.560  711.514
  41.580  716.681
  41.600  934.850
  41.620  559.968
  41.640  942.064
  41.660  585.668
  41.680  435.804
  41.700  533.936
  41.720  602.144
  41.740  844.215
  41.760  638.326
  41.780  448.342
  41.800  503.421
  41.820  665.504
  41.840  572.254
  41.860  853.147
  41.880  869.924
  41.900  735.279
  41.920  764.469
  41.940  967.543
  41.960  668.422
  41.980  946.786
  42.000  698.281
  42.020  597.578
  42.040  858.831
  42.060  918.834
  42.080  596.730
  42.100  787.775
  42.120  600.755
  42.140  747.045
  42.160  702.417
  42.180 1047.461
  42.200 1046.320
  42.220  790.389
  42.240  709.928
  42.260 1174.258
  42.280  775.441
  42.300  828.748
  42.320 1028.452
  42.340 1227.084
  42.360  904.977
  42.380 1195.752
  42.400 1102.139
  42.420 1250.915
  42.440 1204.852
  42.460  881.868
  42.480  963.242
  42.500  814.547
  42.520 1239.074
  42.540  956.602
  42.560  951.326
  42.580  975.356
  42.600  917.457
  42.620  993.385
  42.640 1217.103
  42.660 1093.973
  42.680 1004.620
  42.700  784.672
  42.720  686.252
  42.740  684.607
  42.760 1002.390
  42.780  563.152
  42.800  613.458
  42.820  691.793
  42.840  942.231
  42.860  929.753
  42.880  487.167
  42.900  445.743
  42.920  527.272
  42.940  692.915
  42.960  877.220
  42.980  637.212
  43.000  384.478
  43.020  387.306
  43.040  565.765
  43.060  463.692
  43.080  690.589
  43.100  587.890
  43.120  748.457
  43.140  814.957
  43.160  495.632
  43.180  568.086
  43.200  482.384
  43.220  562.167
  43.240  330.392
  43.260  300.170
  43.280  451.607
  43.300  493.933
  43.320  319.696
  43.340  399.349
  43.360  622.582
  43.380  655.898
  43.400  800.851
  43.420  362.497
  43.440  324.381
  43.460  275.296
  43.480  417.847
  43.500  767.692
  43.520  682.635
  43.540  427.240
  43.560  414.178
  43.580  804.206
  43.600  391.872
  43.620  341.766
  43.640  595.053
  43.660  740.460
  43.680  614.043
  43.700  814.938
  43.720  666.391
  43.740  701.598
  43.760  588.682
  43.780  389.303
  43.800  329.941
  43.820  550.989
  43.840  832.717
  43.860  412.689
  43.880  734.734
  43.900  556.143
  43.920  376.450
  43.940  432.887
  43.960  667.933
  43.980  510.926
  44.000  786.482
