Sample	
Comments	
Filename	C:\WINDMAX\DATA\USERS\GEO\GEO_ER~1\Pyrenees\BULKMA~1\2M1-std2.raw
Goniometer	Ultima IV In-plane
Attachment	Auto sample changer (10 samples)
ScanningMode	2Theta/Theta
ScanningType	Continuos Scanning
X-Ray	40kV/44mA
DivSlit	2/3deg.
DivH.L.Slit	10mm
SctSlit	2/3deg.
RecSlit	0.3mm
Start	16
Stop	44
Step	0.02
Speed	0.3
Offset	0
  16.000  815.460
  16.020  625.611
  16.040  742.194
  16.060  919.370
  16.080  562.059
  16.100  547.898
  16.120  953.230
  16.140  962.521
  16.160  608.626
  16.180  748.304
  16.200  581.269
  16.220  491.859
  16.240  561.238
  16.260  752.915
  16.280  650.458
  16.300  555.660
  16.320  745.629
  16.340  810.042
  16.360  600.078
  16.380  678.766
  16.400  832.080
  16.420  858.240
  16.440  423.422
  16.460  498.083
  16.480  847.669
  16.500  870.054
  16.520  484.784
  16.540  722.995
  16.560  743.655
  16.580  657.339
  16.600  619.730
  16.620  867.612
  16.640  670.070
  16.660  557.443
  16.680  869.027
  16.700  577.606
  16.720  805.577
  16.740  597.971
  16.760  571.909
  16.780  748.418
  16.800  574.970
  16.820  621.960
  16.840  807.444
  16.860  824.165
  16.880  577.161
  16.900  770.913
  16.920  779.069
  16.940  515.885
  16.960  850.758
  16.980  684.400
  17.000  444.556
  17.020  433.341
  17.040  870.690
  17.060  753.471
  17.080  850.529
  17.100  635.271
  17.120  610.620
  17.140  739.404
  17.160  910.448
  17.180  756.891
  17.200  655.215
  17.220  643.756
  17.240  424.113
  17.260  679.984
  17.280  832.003
  17.300  752.700
  17.320  738.077
  17.340  766.478
  17.360  685.833
  17.380  400.710
  17.400  536.137
  17.420  915.108
  17.440  841.721
  17.460  643.688
  17.480  857.708
  17.500  912.353
  17.520  830.685
  17.540  793.204
  17.560  674.319
  17.580  753.689
  17.600  914.149
  17.620  543.952
  17.640  872.406
  17.660  782.345
  17.680  791.499
  17.700  785.863
  17.720  994.387
  17.740  815.054
  17.760  831.201
  17.780 1223.657
  17.800  928.725
  17.820 1153.233
  17.840 1054.245
  17.860 1295.352
  17.880 1059.268
  17.900 1288.330
  17.920 1071.989
  17.940 1183.094
  17.960 1464.009
  17.980 1456.404
  18.000 1469.885
  18.020 1248.064
  18.040 1203.779
  18.060 1400.518
  18.080 1386.826
  18.100 1397.931
  18.120 1211.326
  18.140 1324.892
  18.160 1084.699
  18.180  986.546
  18.200  847.454
  18.220 1050.872
  18.240  902.433
  18.260  818.019
  18.280  992.970
  18.300  765.802
  18.320  827.338
  18.340  636.459
  18.360 1002.195
  18.380  722.360
  18.400  993.879
  18.420  587.193
  18.440  706.936
  18.460  957.566
  18.480  714.061
  18.500  971.795
  18.520  838.505
  18.540  666.571
  18.560  676.686
  18.580  830.442
  18.600  977.342
  18.620  495.456
  18.640  821.267
  18.660  495.076
  18.680  923.201
  18.700  558.266
  18.720  901.436
  18.740  568.384
  18.760  505.071
  18.780  571.018
  18.800  883.460
  18.820  826.412
  18.840  769.335
  18.860  897.812
  18.880  798.844
  18.900  527.156
  18.920  677.423
  18.940  830.809
  18.960  546.275
  18.980  530.869
  19.000  641.197
  19.020  583.686
  19.040  678.698
  19.060  945.851
  19.080  881.395
  19.100  948.311
  19.120  810.693
  19.140  481.621
  19.160  957.819
  19.180  732.103
  19.200  808.138
  19.220  849.069
  19.240  662.130
  19.260  478.483
  19.280  978.903
  19.300  662.250
  19.320  492.031
  19.340  838.675
  19.360  642.631
  19.380  899.941
  19.400  929.427
  19.420  829.537
  19.440  743.290
  19.460  663.707
  19.480  916.486
  19.500  866.454
  19.520 1065.776
  19.540  764.787
  19.560  814.590
  19.580 1140.497
  19.600  892.754
  19.620 1071.287
  19.640  980.374
  19.660 1186.755
  19.680 1336.588
  19.700  902.056
  19.720 1252.880
  19.740 1455.270
  19.760 1115.429
  19.780 1268.726
  19.800 1440.261
  19.820 1752.975
  19.840 1784.649
  19.860 2012.659
  19.880 1912.802
  19.900 2024.081
  19.920 2309.021
  19.940 2215.928
  19.960 2577.440
  19.980 2508.492
  20.000 2675.934
  20.020 2582.705
  20.040 2807.332
  20.060 2716.775
  20.080 2281.123
  20.100 2351.827
  20.120 1987.839
  20.140 2181.058
  20.160 1848.586
  20.180 1917.811
  20.200 1284.323
  20.220 1268.629
  20.240 1360.067
  20.260 1444.933
  20.280 1362.809
  20.300  936.554
  20.320 1144.127
  20.340 1246.149
  20.360 1349.942
  20.380 1317.773
  20.400 1173.710
  20.420 1013.223
  20.440  964.766
  20.460 1232.784
  20.480 1153.816
  20.500  821.699
  20.520 1049.685
  20.540 1111.011
  20.560 1003.162
  20.580  771.215
  20.600 1118.590
  20.620 1001.881
  20.640  946.195
  20.660 1228.047
  20.680 1178.436
  20.700 1075.565
  20.720 1095.303
  20.740 1213.273
  20.760 1007.257
  20.780 1257.582
  20.800 1146.123
  20.820 1332.526
  20.840 1031.117
  20.860 1133.082
  20.880 1316.295
  20.900  977.927
  20.920 1263.663
  20.940 1258.094
  20.960 1048.776
  20.980  786.567
  21.000 1143.467
  21.020  916.643
  21.040  648.142
  21.060 1033.760
  21.080 1066.309
  21.100 1000.193
  21.120  982.709
  21.140  958.499
  21.160  578.689
  21.180  553.627
  21.200  581.446
  21.220 1058.697
  21.240 1007.830
  21.260  979.977
  21.280 1048.815
  21.300  705.777
  21.320  608.567
  21.340  955.259
  21.360  696.460
  21.380 1007.377
  21.400  592.925
  21.420  915.792
  21.440  928.138
  21.460  823.846
  21.480  662.986
  21.500  927.060
  21.520 1090.767
  21.540  829.169
  21.560  747.648
  21.580 1058.862
  21.600  865.273
  21.620 1046.105
  21.640 1004.703
  21.660 1190.980
  21.680 1246.057
  21.700 1069.322
  21.720  861.376
  21.740 1155.481
  21.760 1159.510
  21.780  854.680
  21.800 1224.663
  21.820  913.163
  21.840  799.297
  21.860 1076.810
  21.880  894.847
  21.900 1046.068
  21.920  745.606
  21.940  676.256
  21.960 1094.838
  21.980 1067.919
  22.000  730.939
  22.020  644.636
  22.040  703.084
  22.060  614.983
  22.080  791.544
  22.100  954.401
  22.120  789.039
  22.140  875.956
  22.160  596.433
  22.180  848.341
  22.200  546.114
  22.220  746.885
  22.240  994.033
  22.260  930.074
  22.280  633.429
  22.300  886.180
  22.320  957.278
  22.340  667.137
  22.360  839.571
  22.380  930.215
  22.400 1101.929
  22.420  803.858
  22.440  802.241
  22.460  910.596
  22.480  717.438
  22.500  676.736
  22.520  958.533
  22.540  913.843
  22.560 1120.557
  22.580  865.432
  22.600  791.740
  22.620 1191.359
  22.640  927.064
  22.660 1096.628
  22.680 1184.138
  22.700  904.257
  22.720  957.851
  22.740  905.932
  22.760 1072.477
  22.780 1214.800
  22.800 1202.389
  22.820 1082.723
  22.840 1069.944
  22.860 1244.056
  22.880 1252.217
  22.900 1490.547
  22.920 1239.811
  22.940 1245.656
  22.960 1329.354
  22.980 1617.629
  23.000 1544.469
  23.020 1482.766
  23.040 1852.801
  23.060 1517.979
  23.080 1667.068
  23.100 1659.448
  23.120 1851.005
  23.140 1443.689
  23.160 1473.069
  23.180 1249.238
  23.200 1155.061
  23.220 1401.724
  23.240 1085.209
  23.260 1050.044
  23.280  959.134
  23.300  821.963
  23.320 1108.747
  23.340 1052.074
  23.360  911.832
  23.380  881.718
  23.400  665.543
  23.420  833.038
  23.440  704.199
  23.460 1068.419
  23.480  703.027
  23.500  616.702
  23.520 1103.291
  23.540  804.864
  23.560  794.001
  23.580  981.175
  23.600  872.396
  23.620  739.957
  23.640  943.448
  23.660  756.189
  23.680  904.336
  23.700 1033.098
  23.720  842.753
  23.740 1002.433
  23.760 1269.960
  23.780 1058.294
  23.800 1283.208
  23.820 1104.143
  23.840 1234.671
  23.860 1346.742
  23.880 1561.733
  23.900 1541.339
  23.920 1718.806
  23.940 1511.869
  23.960 1581.177
  23.980 1753.755
  24.000 1603.915
  24.020 1325.500
  24.040 1830.028
  24.060 1303.195
  24.080 1436.989
  24.100 1265.624
  24.120 1639.958
  24.140 1217.004
  24.160 1367.659
  24.180 1401.834
  24.200 1367.867
  24.220 1065.309
  24.240 1035.964
  24.260 1444.040
  24.280 1071.194
  24.300 1117.496
  24.320 1028.998
  24.340  929.014
  24.360 1025.907
  24.380 1097.188
  24.400  894.956
  24.420  990.740
  24.440  932.647
  24.460 1083.533
  24.480 1009.860
  24.500 1005.737
  24.520 1042.981
  24.540  606.102
  24.560 1014.485
  24.580  603.324
  24.600  855.171
  24.620  744.267
  24.640  690.627
  24.660  888.860
  24.680  941.659
  24.700  558.297
  24.720  747.558
  24.740  897.065
  24.760  802.287
  24.780  764.610
  24.800  773.581
  24.820  654.238
  24.840 1073.489
  24.860  804.205
  24.880 1068.909
  24.900  933.394
  24.920  860.995
  24.940  908.965
  24.960  725.258
  24.980 1034.512
  25.000 1157.193
  25.020  995.850
  25.040  766.049
  25.060  850.489
  25.080 1203.721
  25.100 1274.019
  25.120 1063.110
  25.140  944.509
  25.160 1033.712
  25.180 1269.074
  25.200  895.092
  25.220 1020.861
  25.240 1300.989
  25.260 1119.657
  25.280  927.885
  25.300 1291.542
  25.320 1154.485
  25.340 1413.042
  25.360 1192.436
  25.380 1150.281
  25.400 1367.746
  25.420 1416.789
  25.440 1155.604
  25.460 1554.547
  25.480 1590.945
  25.500 1245.034
  25.520 1546.278
  25.540 1318.336
  25.560 1332.759
  25.580 1714.709
  25.600 1615.452
  25.620 1639.388
  25.640 1894.699
  25.660 1932.738
  25.680 1610.450
  25.700 1667.493
  25.720 1449.575
  25.740 1408.005
  25.760 1344.678
  25.780 1416.743
  25.800 1446.508
  25.820 1042.435
  25.840 1057.674
  25.860 1394.764
  25.880 1142.842
  25.900 1228.853
  25.920  865.126
  25.940 1124.530
  25.960  937.524
  25.980  735.530
  26.000  652.214
  26.020  960.644
  26.040  772.412
  26.060  640.500
  26.080 1082.591
  26.100 1031.614
  26.120  711.386
  26.140  730.468
  26.160  928.924
  26.180  810.424
  26.200  612.379
  26.220  698.771
  26.240  681.371
  26.260  772.759
  26.280  839.381
  26.300  827.004
  26.320  860.186
  26.340  977.324
  26.360  953.372
  26.380 1111.540
  26.400  840.735
  26.420  744.938
  26.440 1184.967
  26.460 1269.629
  26.480 1000.226
  26.500 1151.817
  26.520 1035.083
  26.540 1379.160
  26.560 1078.789
  26.580 1544.151
  26.600 1518.238
  26.620 1591.739
  26.640 1384.915
  26.660 1822.790
  26.680 1515.934
  26.700 2000.915
  26.720 2112.779
  26.740 2011.665
  26.760 2065.796
  26.780 2207.741
  26.800 2057.410
  26.820 2097.371
  26.840 2179.046
  26.860 2343.892
  26.880 2383.784
  26.900 2129.611
  26.920 2153.022
  26.940 2048.530
  26.960 2084.610
  26.980 2180.002
  27.000 1849.257
  27.020 1539.966
  27.040 1637.989
  27.060 1716.729
  27.080 1304.040
  27.100 1576.785
  27.120 1107.135
  27.140 1294.595
  27.160  960.207
  27.180 1020.206
  27.200 1064.716
  27.220 1085.127
  27.240  823.677
  27.260  910.836
  27.280  731.610
  27.300  890.708
  27.320 1006.974
  27.340  666.109
  27.360 1151.021
  27.380  757.401
  27.400  820.701
  27.420  905.261
  27.440 1092.228
  27.460  766.637
  27.480 1001.066
  27.500  741.857
  27.520 1079.346
  27.540 1030.637
  27.560 1036.677
  27.580 1091.825
  27.600 1170.314
  27.620  874.891
  27.640  713.094
  27.660 1099.721
  27.680  815.173
  27.700 1050.481
  27.720 1044.051
  27.740 1251.766
  27.760  913.040
  27.780  895.294
  27.800 1321.067
  27.820  988.038
  27.840 1156.396
  27.860 1379.842
  27.880 1400.288
  27.900 1235.852
  27.920 1666.701
  27.940 1732.139
  27.960 1776.159
  27.980 1523.957
  28.000 1653.769
  28.020 1530.240
  28.040 1564.674
  28.060 1527.006
  28.080 1758.776
  28.100 1702.764
  28.120 1354.604
  28.140 1596.912
  28.160 1445.400
  28.180 1428.677
  28.200 1014.477
  28.220 1268.309
  28.240 1091.034
  28.260 1177.095
  28.280 1096.927
  28.300  982.156
  28.320 1038.045
  28.340 1124.203
  28.360 1043.394
  28.380  919.738
  28.400 1054.084
  28.420 1012.161
  28.440 1099.382
  28.460  980.646
  28.480 1086.608
  28.500  889.080
  28.520 1091.738
  28.540  827.898
  28.560  758.019
  28.580  748.495
  28.600  839.123
  28.620  676.263
  28.640 1012.871
  28.660  979.993
  28.680  865.513
  28.700  890.898
  28.720 1107.798
  28.740 1063.390
  28.760 1151.609
  28.780 1071.484
  28.800 1140.445
  28.820 1004.171
  28.840  940.273
  28.860  944.885
  28.880  783.200
  28.900  932.504
  28.920  798.248
  28.940 1114.246
  28.960  614.876
  28.980  855.049
  29.000  741.062
  29.020  963.766
  29.040  984.837
  29.060  737.156
  29.080  903.806
  29.100  797.140
  29.120  716.327
  29.140  804.137
  29.160 1005.867
  29.180  884.804
  29.200  940.339
  29.220  872.660
  29.240  528.871
  29.260  735.792
  29.280  919.681
  29.300  807.707
  29.320  971.822
  29.340  928.845
  29.360  621.929
  29.380  943.474
  29.400  598.907
  29.420  975.201
  29.440  499.902
  29.460  787.568
  29.480  713.335
  29.500  825.597
  29.520  982.369
  29.540  946.967
  29.560  949.977
  29.580  620.627
  29.600  996.377
  29.620  906.469
  29.640  979.868
  29.660  999.692
  29.680  927.280
  29.700  720.570
  29.720  851.184
  29.740  892.551
  29.760 1118.904
  29.780 1287.046
  29.800 1147.520
  29.820 1355.791
  29.840  954.054
  29.860 1152.396
  29.880 1382.718
  29.900 1325.660
  29.920 1366.619
  29.940 1577.640
  29.960 1359.656
  29.980 1607.218
  30.000 1675.554
  30.020 1594.538
  30.040 1615.976
  30.060 1525.195
  30.080 1679.642
  30.100 1650.941
  30.120 1233.235
  30.140 1128.181
  30.160 1234.113
  30.180 1087.390
  30.200  900.131
  30.220 1044.320
  30.240 1220.588
  30.260 1085.452
  30.280  774.345
  30.300  750.006
  30.320  657.134
  30.340  736.535
  30.360  857.479
  30.380  555.559
  30.400  719.640
  30.420  610.418
  30.440  860.645
  30.460  617.852
  30.480  856.830
  30.500  860.284
  30.520  984.704
  30.540  833.309
  30.560  598.070
  30.580  605.640
  30.600  615.765
  30.620  612.373
  30.640  515.014
  30.660  903.549
  30.680  799.864
  30.700  942.158
  30.720  501.777
  30.740  859.174
  30.760  527.671
  30.780  973.695
  30.800  501.947
  30.820  717.090
  30.840  654.207
  30.860  915.528
  30.880  608.756
  30.900  697.310
  30.920  770.342
  30.940  609.060
  30.960  626.490
  30.980  820.954
  31.000  649.860
  31.020  994.630
  31.040 1090.281
  31.060  662.892
  31.080  948.213
  31.100  763.007
  31.120  814.490
  31.140 1233.506
  31.160 1002.356
  31.180  947.087
  31.200  976.583
  31.220 1396.877
  31.240 1453.637
  31.260 1481.956
  31.280 1343.977
  31.300 1181.929
  31.320 1356.820
  31.340 1481.241
  31.360 1756.811
  31.380 1317.835
  31.400 1598.176
  31.420 1762.701
  31.440 1796.103
  31.460 1727.242
  31.480 1332.719
  31.500 1403.915
  31.520 1506.338
  31.540 1524.904
  31.560 1214.855
  31.580 1380.000
  31.600 1444.648
  31.620 1458.037
  31.640 1264.832
  31.660 1228.706
  31.680 1405.885
  31.700 1181.503
  31.720 1182.439
  31.740 1453.222
  31.760 1138.933
  31.780 1300.934
  31.800 1528.903
  31.820 1580.342
  31.840 1125.625
  31.860 1130.135
  31.880 1045.194
  31.900  937.920
  31.920 1400.997
  31.940 1190.351
  31.960 1318.903
  31.980 1039.090
  32.000  933.723
  32.020 1202.946
  32.040  915.142
  32.060 1084.200
  32.080 1153.020
  32.100 1117.383
  32.120  913.980
  32.140 1381.524
  32.160  961.726
  32.180 1360.727
  32.200  994.224
  32.220 1414.587
  32.240 1045.269
  32.260 1127.076
  32.280  979.201
  32.300  936.374
  32.320 1081.918
  32.340 1073.436
  32.360  733.596
  32.380  828.674
  32.400  904.834
  32.420  614.137
  32.440  764.288
  32.460  918.396
  32.480 1034.963
  32.500  975.957
  32.520  957.364
  32.540  726.410
  32.560  741.421
  32.580  756.321
  32.600  549.439
  32.620  733.822
  32.640  709.003
  32.660  787.851
  32.680  824.144
  32.700  876.453
  32.720  560.089
  32.740  470.063
  32.760  473.269
  32.780  914.695
  32.800  705.945
  32.820  536.994
  32.840  678.192
  32.860  962.400
  32.880  888.801
  32.900  820.288
  32.920  604.305
  32.940  992.846
  32.960  786.997
  32.980  970.420
  33.000  913.840
  33.020  903.003
  33.040  600.735
  33.060  948.800
  33.080  855.382
  33.100  516.844
  33.120  446.450
  33.140  824.198
  33.160  711.427
  33.180  913.419
  33.200  646.633
  33.220  918.698
  33.240  631.202
  33.260  434.025
  33.280  576.367
  33.300  766.876
  33.320  896.493
  33.340  582.803
  33.360  856.205
  33.380  863.910
  33.400  709.316
  33.420  463.096
  33.440  555.101
  33.460  584.666
  33.480  382.891
  33.500  497.171
  33.520  907.576
  33.540  419.388
  33.560  432.465
  33.580  380.221
  33.600  465.325
  33.620  820.535
  33.640  774.115
  33.660  619.669
  33.680  439.914
  33.700  813.664
  33.720  928.289
  33.740  710.630
  33.760  820.074
  33.780  541.241
  33.800  816.815
  33.820  860.575
  33.840  856.223
  33.860  506.722
  33.880  665.665
  33.900  738.700
  33.920  514.694
  33.940  828.337
  33.960  592.103
  33.980  533.098
  34.000  556.956
  34.020  685.077
  34.040  613.768
  34.060  665.328
  34.080  632.045
  34.100  666.786
  34.120  984.187
  34.140  790.165
  34.160  558.876
  34.180  661.080
  34.200  814.440
  34.220  657.029
  34.240  618.218
  34.260  668.405
  34.280  890.306
  34.300  828.385
  34.320  860.217
  34.340  782.114
  34.360  553.235
  34.380  877.320
  34.400  957.144
  34.420  589.269
  34.440  986.660
  34.460  767.066
  34.480  856.053
  34.500 1053.455
  34.520 1055.622
  34.540 1188.542
  34.560 1016.718
  34.580 1295.386
  34.600 1360.497
  34.620 1366.322
  34.640 1107.383
  34.660 1576.610
  34.680 1489.955
  34.700 1371.427
  34.720 1620.500
  34.740 1382.605
  34.760 1520.547
  34.780 1759.594
  34.800 1616.590
  34.820 1777.863
  34.840 1810.441
  34.860 1650.021
  34.880 1880.572
  34.900 1995.710
  34.920 1739.739
  34.940 1629.755
  34.960 1768.014
  34.980 2033.155
  35.000 1994.336
  35.020 2101.218
  35.040 2174.601
  35.060 2162.460
  35.080 2486.257
  35.100 2903.946
  35.120 2480.813
  35.140 2503.626
  35.160 2622.949
  35.180 2998.709
  35.200 2917.925
  35.220 2572.079
  35.240 2596.918
  35.260 2449.316
  35.280 2453.732
  35.300 2256.421
  35.320 2137.101
  35.340 1848.851
  35.360 1544.701
  35.380 1394.342
  35.400 1564.532
  35.420 1094.307
  35.440  948.374
  35.460 1356.680
  35.480 1212.174
  35.500  870.177
  35.520 1178.960
  35.540  903.319
  35.560 1049.612
  35.580 1110.351
  35.600  945.623
  35.620  816.596
  35.640  622.791
  35.660  846.069
  35.680  566.123
  35.700  607.366
  35.720  720.264
  35.740  983.406
  35.760  774.540
  35.780  969.214
  35.800  820.320
  35.820  688.853
  35.840  819.283
  35.860  848.056
  35.880  769.207
  35.900  577.444
  35.920  747.348
  35.940  977.357
  35.960 1074.141
  35.980  745.135
  36.000  609.389
  36.020  785.099
  36.040  773.089
  36.060  946.483
  36.080  610.573
  36.100  876.572
  36.120  692.764
  36.140 1042.992
  36.160 1013.021
  36.180 1045.272
  36.200  839.837
  36.220  793.604
  36.240  605.577
  36.260  888.063
  36.280 1031.964
  36.300  927.364
  36.320  925.766
  36.340  834.688
  36.360  660.273
  36.380  611.168
  36.400  986.383
  36.420  746.681
  36.440  863.094
  36.460  921.052
  36.480  797.363
  36.500 1104.515
  36.520 1042.115
  36.540 1065.369
  36.560  913.611
  36.580  860.980
  36.600  952.511
  36.620 1378.803
  36.640  992.147
  36.660  915.319
  36.680 1158.560
  36.700  950.677
  36.720 1247.187
  36.740 1037.754
  36.760  853.467
  36.780 1229.267
  36.800 1153.007
  36.820  837.941
  36.840  857.169
  36.860 1114.598
  36.880  741.240
  36.900  966.545
  36.920  937.136
  36.940  689.035
  36.960 1120.886
  36.980  724.517
  37.000  873.152
  37.020  668.961
  37.040  856.951
  37.060 1074.374
  37.080  852.525
  37.100  921.088
  37.120  731.432
  37.140  817.822
  37.160  749.033
  37.180  711.563
  37.200  648.898
  37.220  745.045
  37.240  913.838
  37.260  614.830
  37.280  719.129
  37.300  525.069
  37.320  836.487
  37.340  832.132
  37.360  947.640
  37.380  693.556
  37.400 1056.615
  37.420  654.971
  37.440  785.007
  37.460 1046.454
  37.480 1020.108
  37.500  842.037
  37.520  614.563
  37.540  729.287
  37.560  899.586
  37.580  700.026
  37.600  716.663
  37.620  807.014
  37.640  813.889
  37.660  742.300
  37.680 1232.790
  37.700 1211.805
  37.720  917.389
  37.740  884.976
  37.760 1127.486
  37.780 1212.281
  37.800 1365.137
  37.820 1168.280
  37.840 1140.978
  37.860 1026.354
  37.880  924.787
  37.900  956.922
  37.920 1399.259
  37.940 1063.533
  37.960 1348.031
  37.980 1436.016
  38.000  913.922
  38.020  913.416
  38.040 1317.180
  38.060  904.469
  38.080 1010.133
  38.100  933.738
  38.120 1173.504
  38.140 1071.598
  38.160  958.412
  38.180  935.291
  38.200 1032.751
  38.220  613.907
  38.240  802.845
  38.260  959.283
  38.280  571.353
  38.300  569.539
  38.320  801.902
  38.340  858.423
  38.360  704.842
  38.380  644.393
  38.400  914.226
  38.420  634.992
  38.440  586.574
  38.460  772.905
  38.480  746.240
  38.500  773.014
  38.520  753.233
  38.540  430.504
  38.560  883.967
  38.580  833.588
  38.600  692.811
  38.620  718.714
  38.640  415.645
  38.660  909.230
  38.680  793.447
  38.700  571.150
  38.720  536.409
  38.740  464.940
  38.760  641.272
  38.780  488.645
  38.800  681.968
  38.820  709.984
  38.840  714.555
  38.860  391.643
  38.880  544.100
  38.900  342.213
  38.920  336.766
  38.940  428.349
  38.960  628.214
  38.980  764.154
  39.000  799.818
  39.020  381.872
  39.040  799.643
  39.060  517.640
  39.080  808.018
  39.100  440.428
  39.120  388.787
  39.140  411.392
  39.160  581.115
  39.180  576.255
  39.200  480.194
  39.220  376.435
  39.240  756.982
  39.260  336.175
  39.280  805.546
  39.300  366.930
  39.320  712.568
  39.340  484.520
  39.360  482.001
  39.380  864.851
  39.400  844.544
  39.420  816.801
  39.440  597.283
  39.460  486.463
  39.480  499.231
  39.500  530.264
  39.520  799.492
  39.540  819.890
  39.560  394.461
  39.580  780.604
  39.600  649.865
  39.620  421.948
  39.640  522.120
  39.660  373.925
  39.680  461.093
  39.700  399.369
  39.720  640.940
  39.740  645.843
  39.760  442.180
  39.780  673.850
  39.800  815.567
  39.820  792.966
  39.840  872.694
  39.860  860.676
  39.880  588.883
  39.900  788.356
  39.920  402.461
  39.940  909.113
  39.960  425.441
  39.980  730.674
  40.000  429.742
  40.020  503.537
  40.040  591.287
  40.060  736.570
  40.080  584.489
  40.100  819.087
  40.120  985.346
  40.140  599.195
  40.160  956.615
  40.180 1055.978
  40.200 1069.325
  40.220 1034.424
  40.240  768.010
  40.260  962.453
  40.280  996.268
  40.300  859.967
  40.320  671.796
  40.340 1125.275
  40.360  695.203
  40.380  969.713
  40.400  990.220
  40.420  856.243
  40.440  594.824
  40.460  896.547
  40.480  921.115
  40.500 1007.551
  40.520 1034.033
  40.540  814.607
  40.560  892.834
  40.580  583.693
  40.600  821.899
  40.620  612.544
  40.640  508.950
  40.660  877.433
  40.680  961.109
  40.700  866.731
  40.720  667.713
  40.740  894.680
  40.760  552.731
  40.780  874.422
  40.800 1018.589
  40.820  576.127
  40.840  669.375
  40.860 1037.950
  40.880  802.362
  40.900  925.623
  40.920  819.617
  40.940 1041.669
  40.960  712.454
  40.980  695.982
  41.000  990.109
  41.020  913.825
  41.040  645.225
  41.060  774.742
  41.080  996.803
  41.100  908.606
  41.120  653.554
  41.140 1078.166
  41.160  983.489
  41.180  762.479
  41.200  963.287
  41.220  704.516
  41.240  964.852
  41.260  914.364
  41.280  734.816
  41.300  766.069
  41.320  885.869
  41.340  675.704
  41.360 1033.820
  41.380  597.243
  41.400 1044.552
  41.420  989.390
  41.440  609.822
  41.460 1014.721
  41.480  825.494
  41.500  836.298
  41.520  914.552
  41.540  546.280
  41.560  918.442
  41.580  924.288
  41.600  653.907
  41.620  579.273
  41.640  891.649
  41.660  571.360
  41.680  867.348
  41.700  946.566
  41.720  738.108
  41.740  547.915
  41.760  656.250
  41.780  831.782
  41.800  619.926
  41.820  660.194
  41.840  589.114
  41.860  875.291
  41.880  698.693
  41.900  531.621
  41.920  706.586
  41.940  742.884
  41.960  515.132
  41.980  795.152
  42.000  954.600
  42.020  660.523
  42.040  707.383
  42.060 1057.129
  42.080  668.148
  42.100  789.701
  42.120  678.302
  42.140 1101.429
  42.160  873.568
  42.180  923.123
  42.200 1154.667
  42.220  845.419
  42.240  772.564
  42.260 1197.009
  42.280  901.719
  42.300  921.285
  42.320  803.629
  42.340 1164.490
  42.360 1052.244
  42.380  871.726
  42.400 1014.865
  42.420 1155.976
  42.440 1140.221
  42.460 1055.381
  42.480  929.118
  42.500  797.494
  42.520 1081.362
  42.540 1130.219
  42.560 1096.784
  42.580 1187.240
  42.600 1017.419
  42.620 1035.665
  42.640 1295.260
  42.660  760.778
  42.680  947.125
  42.700  990.392
  42.720 1141.299
  42.740 1131.274
  42.760 1051.539
  42.780  859.604
  42.800  888.898
  42.820  801.262
  42.840  861.373
  42.860  613.374
  42.880  806.641
  42.900  717.838
  42.920  522.389
  42.940  855.810
  42.960  571.122
  42.980  372.213
  43.000  801.790
  43.020  351.338
  43.040  876.288
  43.060  441.034
  43.080  511.498
  43.100  683.999
  43.120  676.130
  43.140  661.123
  43.160  704.769
  43.180  413.128
  43.200  572.239
  43.220  599.029
  43.240  453.838
  43.260  340.826
  43.280  465.359
  43.300  309.442
  43.320  498.316
  43.340  646.777
  43.360  441.709
  43.380  603.349
  43.400  540.693
  43.420  791.405
  43.440  583.150
  43.460  628.855
  43.480  364.606
  43.500  306.532
  43.520  758.095
  43.540  716.330
  43.560  413.049
  43.580  526.048
  43.600  689.884
  43.620  772.165
  43.640  533.078
  43.660  435.138
  43.680  562.273
  43.700  649.297
  43.720  719.614
  43.740  518.770
  43.760  827.463
  43.780  571.286
  43.800  538.437
  43.820  754.946
  43.840  349.147
  43.860  514.630
  43.880  565.513
  43.900  734.667
  43.920  783.581
  43.940  667.247
  43.960  656.027
  43.980  381.570
  44.000  420.560
