Sample	
Comments	
Filename	C:\WINDMAX\DATA\USERS\GEO\GEO_ER~1\Pyrenees\BULKMA~1\2M1-std2.raw
Goniometer	Ultima IV In-plane
Attachment	Auto sample changer (10 samples)
ScanningMode	2Theta/Theta
ScanningType	Continuos Scanning
X-Ray	40kV/44mA
DivSlit	2/3deg.
DivH.L.Slit	10mm
SctSlit	2/3deg.
RecSlit	0.3mm
Start	16
Stop	44
Step	0.02
Speed	0.3
Offset	0
  16.000  442.753
  16.020  536.750
  16.040  850.373
  16.060  864.427
  16.080  730.380
  16.100  614.589
  16.120  576.534
  16.140  474.597
  16.160  649.571
  16.180  805.797
  16.200  447.428
  16.220  534.081
  16.240  885.524
  16.260  471.540
  16.280  596.818
  16.300  594.140
  16.320  807.005
  16.340  792.474
  16.360  745.191
  16.380  457.296
  16.400  463.706
  16.420  765.784
  16.440  866.709
  16.460  417.095
  16.480  604.244
  16.500  744.889
  16.520  549.672
  16.540  831.524
  16.560  444.618
  16.580  648.541
  16.600  584.545
  16.620  514.669
  16.640  499.938
  16.660  638.016
  16.680  759.077
  16.700  780.045
  16.720  451.739
  16.740  861.891
  16.760  390.807
  16.780  483.253
  16.800  912.627
  16.820  804.880
  16.840  786.805
  16.860  483.032
  16.880  465.354
  16.900  884.192
  16.920  768.314
  16.940  887.835
  16.960  541.020
  16.980  699.231
  17.000  394.944
  17.020  623.586
  17.040  778.255
  17.060  588.440
  17.080  504.957
  17.100  656.923
  17.120  617.479
  17.140  854.591
  17.160  803.891
  17.180  555.199
  17.200  795.707
  17.220  761.555
  17.240  445.281
  17.260  667.800
  17.280  732.184
  17.300  446.147
  17.320  598.603
  17.340  924.722
  17.360  497.259
  17.380  599.891
  17.400  628.339
  17.420  929.553
  17.440  416.073
  17.460  744.575
  17.480  629.281
  17.500  614.796
  17.520  839.499
  17.540  568.478
  17.560  886.195
  17.580  944.985
  17.600  866.434
  17.620  994.857
  17.640  741.540
  17.660  978.617
  17.680  686.342
  17.700  973.482
  17.720  724.328
  17.740 1057.749
  17.760  751.761
  17.780 1208.594
  17.800  918.789
  17.820 1230.947
  17.840 1421.952
  17.860 1013.655
  17.880 1119.375
  17.900 1482.581
  17.920 1251.606
  17.940 1221.198
  17.960 1176.267
  17.980 1529.659
  18.000 1503.832
  18.020 1220.979
  18.040 1037.040
  18.060  992.851
  18.080 1200.840
  18.100 1286.056
  18.120 1068.560
  18.140  994.128
  18.160  985.826
  18.180  751.418
  18.200  859.848
  18.220  993.317
  18.240  976.591
  18.260  845.769
  18.280  725.579
  18.300  576.680
  18.320  590.115
  18.340  865.913
  18.360  968.427
  18.380  708.212
  18.400  827.224
  18.420  617.740
  18.440  992.604
  18.460  806.289
  18.480  538.847
  18.500  902.933
  18.520  492.647
  18.540  973.239
  18.560  554.262
  18.580  761.952
  18.600  509.668
  18.620  580.823
  18.640  629.053
  18.660  903.532
  18.680  845.392
  18.700  907.784
  18.720  552.368
  18.740 1012.232
  18.760  961.322
  18.780  720.594
  18.800  621.000
  18.820  691.259
  18.840  521.499
  18.860  787.291
  18.880  923.008
  18.900  522.061
  18.920  893.646
  18.940  575.651
  18.960  789.009
  18.980  475.071
  19.000  675.543
  19.020  668.136
  19.040  880.521
  19.060  906.558
  19.080  902.180
  19.100  863.573
  19.120  923.484
  19.140  758.721
  19.160  646.659
  19.180  714.976
  19.200  732.397
  19.220  869.400
  19.240  819.354
  19.260  932.980
  19.280  934.088
  19.300  943.231
  19.320  824.200
  19.340  888.167
  19.360  561.377
  19.380  903.317
  19.400  600.365
  19.420  558.427
  19.440  783.424
  19.460  829.283
  19.480  545.418
  19.500  568.855
  19.520 1050.093
  19.540 1008.249
  19.560  815.084
  19.580 1069.477
  19.600  748.640
  19.620  801.015
  19.640 1027.056
  19.660 1074.295
  19.680  824.856
  19.700  965.529
  19.720 1152.029
  19.740 1373.989
  19.760 1521.526
  19.780 1424.924
  19.800 1381.861
  19.820 1610.627
  19.840 1951.205
  19.860 1815.499
  19.880 2093.472
  19.900 2153.542
  19.920 2409.758
  19.940 2424.137
  19.960 2432.943
  19.980 2329.986
  20.000 2905.793
  20.020 2661.370
  20.040 2761.688
  20.060 2473.430
  20.080 2441.834
  20.100 2193.245
  20.120 1958.317
  20.140 1905.538
  20.160 1972.577
  20.180 1706.722
  20.200 1367.822
  20.220 1366.499
  20.240 1316.832
  20.260 1170.345
  20.280 1188.449
  20.300 1210.413
  20.320 1336.321
  20.340 1085.480
  20.360 1083.106
  20.380 1310.806
  20.400 1219.851
  20.420  902.992
  20.440 1052.863
  20.460  856.158
  20.480  761.942
  20.500 1058.269
  20.520  985.408
  20.540  935.854
  20.560 1172.175
  20.580  875.278
  20.600 1039.597
  20.620 1255.765
  20.640 1096.957
  20.660 1040.870
  20.680  945.303
  20.700 1123.006
  20.720  928.676
  20.740 1110.960
  20.760 1050.235
  20.780 1241.294
  20.800 1037.204
  20.820 1436.065
  20.840 1212.544
  20.860 1014.734
  20.880 1038.734
  20.900 1236.898
  20.920  994.790
  20.940  914.848
  20.960  769.932
  20.980  882.437
  21.000 1088.838
  21.020  639.913
  21.040  739.345
  21.060  942.974
  21.080  931.945
  21.100  670.167
  21.120  746.493
  21.140  765.576
  21.160  906.408
  21.180  802.410
  21.200  913.193
  21.220  597.951
  21.240  784.954
  21.260  638.686
  21.280  939.652
  21.300  537.412
  21.320  954.333
  21.340  679.439
  21.360 1074.163
  21.380  905.376
  21.400  946.823
  21.420  690.627
  21.440  913.341
  21.460  919.228
  21.480  888.623
  21.500  971.773
  21.520 1186.206
  21.540  961.071
  21.560 1132.011
  21.580 1126.599
  21.600  779.030
  21.620 1147.037
  21.640 1248.974
  21.660  862.026
  21.680  907.529
  21.700 1222.499
  21.720 1302.163
  21.740  846.723
  21.760  893.529
  21.780 1339.333
  21.800 1188.782
  21.820  856.885
  21.840 1076.333
  21.860 1228.236
  21.880  808.810
  21.900 1163.641
  21.920  814.137
  21.940  710.082
  21.960 1022.996
  21.980  929.333
  22.000  898.519
  22.020  977.980
  22.040  573.268
  22.060  675.253
  22.080  719.311
  22.100 1058.010
  22.120  578.237
  22.140  990.388
  22.160  713.226
  22.180  710.398
  22.200  780.964
  22.220  891.042
  22.240  675.669
  22.260  633.953
  22.280  662.698
  22.300 1015.702
  22.320  676.059
  22.340  629.747
  22.360  614.393
  22.380  753.729
  22.400  879.522
  22.420  911.275
  22.440 1077.065
  22.460  837.098
  22.480  831.271
  22.500 1114.155
  22.520 1078.178
  22.540  831.248
  22.560  969.730
  22.580  790.540
  22.600  750.513
  22.620 1006.273
  22.640 1111.804
  22.660 1015.596
  22.680  775.465
  22.700 1084.506
  22.720  765.660
  22.740 1028.832
  22.760 1001.565
  22.780 1239.246
  22.800 1233.848
  22.820 1323.603
  22.840 1207.342
  22.860 1213.656
  22.880 1360.282
  22.900 1229.476
  22.920 1370.491
  22.940 1319.598
  22.960 1567.884
  22.980 1632.906
  23.000 1616.798
  23.020 1831.732
  23.040 1462.800
  23.060 1802.995
  23.080 1868.411
  23.100 1662.947
  23.120 1568.493
  23.140 1607.405
  23.160 1406.077
  23.180 1138.835
  23.200 1403.515
  23.220 1267.548
  23.240  936.183
  23.260 1064.502
  23.280  870.355
  23.300 1169.676
  23.320 1157.847
  23.340  819.058
  23.360  795.538
  23.380  895.788
  23.400 1106.000
  23.420 1054.912
  23.440  878.834
  23.460  838.701
  23.480  770.528
  23.500  643.581
  23.520 1101.536
  23.540 1065.116
  23.560  755.501
  23.580 1128.870
  23.600  812.623
  23.620  889.870
  23.640 1095.594
  23.660 1231.388
  23.680  839.267
  23.700 1106.396
  23.720  781.569
  23.740  848.320
  23.760 1301.193
  23.780 1117.441
  23.800 1179.337
  23.820 1266.452
  23.840 1170.077
  23.860 1315.932
  23.880 1511.017
  23.900 1281.617
  23.920 1551.025
  23.940 1776.767
  23.960 1798.403
  23.980 1498.147
  24.000 1614.901
  24.020 1816.258
  24.040 1620.422
  24.060 1445.482
  24.080 1255.649
  24.100 1645.740
  24.120 1277.514
  24.140 1158.351
  24.160 1567.403
  24.180 1463.731
  24.200 1505.470
  24.220 1281.801
  24.240 1157.548
  24.260 1447.973
  24.280 1285.621
  24.300 1234.929
  24.320  890.487
  24.340 1282.607
  24.360  894.217
  24.380 1136.269
  24.400  883.622
  24.420  964.096
  24.440 1056.025
  24.460  989.386
  24.480 1021.600
  24.500  605.708
  24.520 1091.856
  24.540  676.827
  24.560 1039.399
  24.580  783.769
  24.600  720.879
  24.620  807.434
  24.640  889.780
  24.660  953.802
  24.680  670.230
  24.700  694.258
  24.720  991.831
  24.740  636.646
  24.760  851.295
  24.780  703.995
  24.800  959.291
  24.820  606.621
  24.840 1102.804
  24.860  791.516
  24.880  957.404
  24.900  976.607
  24.920 1141.553
  24.940  833.012
  24.960  999.317
  24.980 1109.680
  25.000  895.168
  25.020  820.083
  25.040  860.049
  25.060  770.477
  25.080  805.751
  25.100 1131.939
  25.120  870.209
  25.140 1005.921
  25.160  879.510
  25.180  988.690
  25.200 1111.729
  25.220 1370.568
  25.240 1283.427
  25.260 1074.031
  25.280 1175.852
  25.300 1156.061
  25.320 1232.618
  25.340 1073.181
  25.360 1413.842
  25.380 1199.312
  25.400 1228.372
  25.420 1200.607
  25.440 1364.453
  25.460 1442.209
  25.480 1198.647
  25.500 1192.836
  25.520 1523.759
  25.540 1530.465
  25.560 1791.556
  25.580 1613.473
  25.600 1598.374
  25.620 1588.904
  25.640 1494.683
  25.660 1551.246
  25.680 1724.230
  25.700 1744.124
  25.720 1480.580
  25.740 1298.482
  25.760 1537.451
  25.780 1594.386
  25.800 1056.565
  25.820 1140.077
  25.840 1405.627
  25.860 1047.421
  25.880 1267.126
  25.900  780.862
  25.920 1248.973
  25.940  841.368
  25.960 1096.661
  25.980  899.353
  26.000  689.247
  26.020  940.652
  26.040  688.793
  26.060  792.435
  26.080  908.630
  26.100  934.777
  26.120 1084.665
  26.140  621.878
  26.160  788.735
  26.180  936.498
  26.200 1058.705
  26.220 1130.473
  26.240  794.711
  26.260 1034.356
  26.280 1105.370
  26.300 1127.751
  26.320 1122.675
  26.340 1092.384
  26.360  871.716
  26.380 1173.947
  26.400 1170.716
  26.420 1192.668
  26.440 1294.693
  26.460 1069.852
  26.480  955.379
  26.500  927.645
  26.520  959.488
  26.540 1127.362
  26.560 1095.800
  26.580 1542.218
  26.600 1420.753
  26.620 1652.423
  26.640 1776.257
  26.660 1658.308
  26.680 1513.657
  26.700 1646.025
  26.720 1887.692
  26.740 2156.396
  26.760 2208.409
  26.780 1970.582
  26.800 2208.451
  26.820 2394.253
  26.840 2511.216
  26.860 2215.642
  26.880 2280.883
  26.900 2452.547
  26.920 2506.626
  26.940 2254.191
  26.960 2038.147
  26.980 1928.951
  27.000 1732.253
  27.020 1596.955
  27.040 1651.882
  27.060 1581.606
  27.080 1651.144
  27.100 1539.561
  27.120 1533.792
  27.140 1000.618
  27.160 1393.971
  27.180 1271.939
  27.200 1269.925
  27.220 1250.123
  27.240 1052.026
  27.260  894.407
  27.280 1118.748
  27.300  723.247
  27.320 1075.109
  27.340 1052.599
  27.360  727.788
  27.380 1168.398
  27.400  844.980
  27.420 1085.506
  27.440 1010.330
  27.460  725.655
  27.480  986.131
  27.500  743.815
  27.520  755.342
  27.540 1180.911
  27.560  991.456
  27.580  908.658
  27.600 1165.074
  27.620  765.062
  27.640  956.829
  27.660 1016.158
  27.680 1084.988
  27.700 1054.014
  27.720  943.247
  27.740  941.130
  27.760 1116.275
  27.780 1098.582
  27.800 1383.739
  27.820 1411.564
  27.840 1146.420
  27.860 1241.201
  27.880 1457.995
  27.900 1661.979
  27.920 1305.367
  27.940 1348.104
  27.960 1509.606
  27.980 1437.911
  28.000 1955.142
  28.020 1470.271
  28.040 1923.743
  28.060 1527.788
  28.080 1350.980
  28.100 1320.884
  28.120 1383.694
  28.140 1285.734
  28.160 1501.240
  28.180 1311.916
  28.200 1473.832
  28.220 1185.841
  28.240  971.733
  28.260 1188.468
  28.280  910.473
  28.300  801.622
  28.320 1233.463
  28.340 1253.375
  28.360  984.072
  28.380 1170.774
  28.400  767.250
  28.420  943.022
  28.440  866.022
  28.460  756.722
  28.480 1111.260
  28.500  941.522
  28.520  803.275
  28.540  662.396
  28.560 1052.621
  28.580 1018.113
  28.600  926.377
  28.620 1180.740
  28.640  837.051
  28.660 1115.067
  28.680 1162.057
  28.700  742.106
  28.720  765.848
  28.740 1148.992
  28.760  666.771
  28.780  938.810
  28.800 1043.330
  28.820  875.216
  28.840  844.869
  28.860 1018.782
  28.880  827.975
  28.900  812.766
  28.920  985.597
  28.940  962.282
  28.960  887.506
  28.980 1045.995
  29.000  742.072
  29.020  672.132
  29.040  736.642
  29.060  780.738
  29.080  730.940
  29.100  724.138
  29.120  824.301
  29.140 1050.038
  29.160  769.140
  29.180  728.832
  29.200 1027.653
  29.220  678.798
  29.240  864.930
  29.260 1007.111
  29.280  597.551
  29.300  810.023
  29.320  922.339
  29.340  659.577
  29.360  864.434
  29.380  512.865
  29.400  549.263
  29.420  955.819
  29.440  664.799
  29.460  490.469
  29.480  879.209
  29.500  618.072
  29.520  577.143
  29.540  909.730
  29.560 1029.499
  29.580  701.159
  29.600  715.106
  29.620  615.872
  29.640  730.077
  29.660  792.773
  29.680  814.154
  29.700  743.678
  29.720  804.899
  29.740 1103.087
  29.760  784.308
  29.780 1249.925
  29.800  973.293
  29.820  885.161
  29.840 1274.560
  29.860 1489.967
  29.880 1040.003
  29.900 1538.392
  29.920 1476.026
  29.940 1648.653
  29.960 1388.917
  29.980 1325.953
  30.000 1511.560
  30.020 1456.555
  30.040 1400.938
  30.060 1333.344
  30.080 1749.246
  30.100 1526.114
  30.120 1493.730
  30.140 1275.417
  30.160 1319.128
  30.180 1033.467
  30.200  939.472
  30.220 1117.131
  30.240  880.147
  30.260 1015.193
  30.280 1054.677
  30.300  913.719
  30.320  740.445
  30.340  649.003
  30.360  968.000
  30.380  645.862
  30.400  593.974
  30.420  595.376
  30.440  639.473
  30.460  724.087
  30.480  547.263
  30.500  697.410
  30.520  737.442
  30.540  644.852
  30.560  926.794
  30.580  825.691
  30.600  640.130
  30.620  718.522
  30.640  553.571
  30.660  699.659
  30.680  545.097
  30.700  580.484
  30.720  710.281
  30.740  583.250
  30.760  943.304
  30.780  836.102
  30.800  507.090
  30.820  780.675
  30.840  840.316
  30.860  767.560
  30.880  966.186
  30.900  547.397
  30.920  813.137
  30.940 1018.492
  30.960  788.522
  30.980  958.990
  31.000 1046.262
  31.020  953.255
  31.040  599.983
  31.060 1064.179
  31.080  696.314
  31.100 1181.515
  31.120  773.107
  31.140 1134.107
  31.160  943.195
  31.180 1065.702
  31.200 1177.455
  31.220 1331.275
  31.240 1505.643
  31.260 1233.226
  31.280 1397.574
  31.300 1205.594
  31.320 1571.687
  31.340 1303.507
  31.360 1641.919
  31.380 1754.143
  31.400 1403.705
  31.420 1465.985
  31.440 1743.725
  31.460 1435.270
  31.480 1649.990
  31.500 1344.933
  31.520 1324.601
  31.540 1324.965
  31.560 1201.579
  31.580 1431.645
  31.600 1546.090
  31.620 1710.104
  31.640 1628.287
  31.660 1478.919
  31.680 1642.271
  31.700 1300.117
  31.720 1516.008
  31.740 1466.683
  31.760 1559.772
  31.780 1289.882
  31.800 1161.425
  31.820 1105.097
  31.840 1133.849
  31.860 1302.244
  31.880 1094.400
  31.900 1250.320
  31.920 1062.936
  31.940 1309.777
  31.960  881.345
  31.980  889.817
  32.000  778.048
  32.020  822.676
  32.040 1107.641
  32.060 1224.099
  32.080 1177.191
  32.100 1163.059
  32.120 1032.027
  32.140  975.849
  32.160 1361.439
  32.180 1212.902
  32.200 1260.891
  32.220 1248.968
  32.240 1236.606
  32.260 1276.623
  32.280 1114.743
  32.300 1244.587
  32.320  954.795
  32.340  995.560
  32.360  797.396
  32.380 1094.833
  32.400 1045.824
  32.420  928.520
  32.440 1009.224
  32.460  651.547
  32.480  769.302
  32.500  676.062
  32.520  844.428
  32.540  763.370
  32.560  599.555
  32.580  755.460
  32.600  655.730
  32.620  483.557
  32.640  432.999
  32.660  476.424
  32.680  928.958
  32.700  800.510
  32.720  585.487
  32.740  897.621
  32.760  744.889
  32.780  870.046
  32.800  666.404
  32.820  847.378
  32.840  878.812
  32.860  817.643
  32.880  839.311
  32.900  480.585
  32.920  518.159
  32.940  869.732
  32.960  686.284
  32.980  653.535
  33.000  753.104
  33.020  672.079
  33.040  678.598
  33.060  893.720
  33.080  433.626
  33.100  700.116
  33.120  892.249
  33.140  902.616
  33.160  610.863
  33.180  717.948
  33.200  420.553
  33.220  542.432
  33.240  609.474
  33.260  798.065
  33.280  538.497
  33.300  671.347
  33.320  562.971
  33.340  448.769
  33.360  377.092
  33.380  568.117
  33.400  754.353
  33.420  677.486
  33.440  666.060
  33.460  440.010
  33.480  802.625
  33.500  537.720
  33.520  394.893
  33.540  666.655
  33.560  821.207
  33.580  519.929
  33.600  642.987
  33.620  440.916
  33.640  524.623
  33.660  679.211
  33.680  456.162
  33.700  776.322
  33.720  597.939
  33.740  839.222
  33.760  865.329
  33.780  570.167
  33.800  793.096
  33.820  410.536
  33.840  577.686
  33.860  802.934
  33.880  752.349
  33.900  781.911
  33.920  712.680
  33.940  668.172
  33.960  590.197
  33.980  888.650
  34.000  769.126
  34.020  499.158
  34.040  704.169
  34.060  817.293
  34.080  833.911
  34.100  762.500
  34.120  593.710
  34.140  885.541
  34.160  909.362
  34.180  678.197
  34.200  606.673
  34.220  809.275
  34.240  722.360
  34.260  698.515
  34.280  964.666
  34.300  527.317
  34.320  678.077
  34.340  785.219
  34.360  834.012
  34.380  593.803
  34.400  585.549
  34.420  703.100
  34.440  832.944
  34.460  992.488
  34.480 1126.355
  34.500  884.721
  34.520  744.804
  34.540  768.604
  34.560 1246.819
  34.580 1268.428
  34.600 1405.253
  34.620 1327.382
  34.640 1547.690
  34.660 1358.599
  34.680 1630.200
  34.700 1400.400
  34.720 1761.221
  34.740 1597.948
  34.760 1610.536
  34.780 1763.928
  34.800 1765.396
  34.820 1887.779
  34.840 1911.244
  34.860 1919.166
  34.880 1579.063
  34.900 1652.281
  34.920 1766.619
  34.940 1848.289
  34.960 1825.365
  34.980 1946.736
  35.000 1898.594
  35.020 2266.025
  35.040 2274.822
  35.060 2260.878
  35.080 2625.313
  35.100 2617.105
  35.120 2903.576
  35.140 2542.078
  35.160 2736.401
  35.180 2585.399
  35.200 2897.205
  35.220 2729.705
  35.240 2624.219
  35.260 2486.846
  35.280 2054.337
  35.300 1873.695
  35.320 1684.256
  35.340 1822.859
  35.360 1713.246
  35.380 1401.722
  35.400 1482.737
  35.420 1390.101
  35.440 1332.908
  35.460 1097.637
  35.480 1173.740
  35.500 1124.126
  35.520  900.131
  35.540  837.985
  35.560  975.434
  35.580 1082.264
  35.600 1078.130
  35.620  701.409
  35.640  682.735
  35.660  849.831
  35.680  702.942
  35.700  894.219
  35.720  883.442
  35.740 1062.668
  35.760  773.644
  35.780  631.157
  35.800  827.832
  35.820  536.827
  35.840  761.081
  35.860  910.130
  35.880  778.939
  35.900  800.066
  35.920  761.449
  35.940  660.746
  35.960  855.442
  35.980  757.047
  36.000 1088.894
  36.020  923.243
  36.040  795.011
  36.060 1056.957
  36.080  746.204
  36.100  991.563
  36.120 1039.758
  36.140  791.821
  36.160  844.632
  36.180  827.539
  36.200  627.752
  36.220  981.044
  36.240  786.176
  36.260  686.055
  36.280 1119.983
  36.300  955.950
  36.320  914.883
  36.340  804.504
  36.360  824.634
  36.380  608.164
  36.400  900.587
  36.420  922.951
  36.440 1049.090
  36.460 1093.120
  36.480 1007.511
  36.500  991.877
  36.520 1247.539
  36.540 1224.220
  36.560 1165.079
  36.580  952.473
  36.600 1336.412
  36.620  950.959
  36.640 1158.962
  36.660  961.403
  36.680 1344.349
  36.700  985.041
  36.720  990.630
  36.740 1252.649
  36.760 1075.424
  36.780  816.691
  36.800 1224.272
  36.820  863.819
  36.840 1000.960
  36.860 1003.196
  36.880 1113.282
  36.900  779.197
  36.920 1165.841
  36.940 1197.600
  36.960  735.179
  36.980  858.812
  37.000  734.036
  37.020  681.169
  37.040  643.029
  37.060  766.940
  37.080 1022.185
  37.100 1055.654
  37.120  800.222
  37.140 1049.885
  37.160  531.610
  37.180  709.327
  37.200  684.370
  37.220  879.705
  37.240  999.138
  37.260  795.746
  37.280  533.125
  37.300  735.113
  37.320  925.741
  37.340  894.004
  37.360  607.895
  37.380  678.540
  37.400 1060.537
  37.420  677.354
  37.440  547.049
  37.460  750.976
  37.480  940.099
  37.500  611.374
  37.520  726.347
  37.540  691.703
  37.560  986.880
  37.580  980.511
  37.600  937.049
  37.620  820.338
  37.640 1210.047
  37.660 1048.954
  37.680  778.385
  37.700 1250.337
  37.720 1214.274
  37.740 1066.320
  37.760 1311.015
  37.780  882.655
  37.800 1168.337
  37.820 1118.160
  37.840 1378.743
  37.860 1026.043
  37.880 1094.546
  37.900 1194.780
  37.920 1371.592
  37.940 1026.400
  37.960 1096.479
  37.980 1017.543
  38.000 1056.337
  38.020 1294.194
  38.040 1263.169
  38.060  935.589
  38.080 1257.047
  38.100 1175.943
  38.120 1186.725
  38.140 1189.362
  38.160  707.725
  38.180  941.864
  38.200  757.292
  38.220  623.986
  38.240  735.154
  38.260  922.849
  38.280  583.780
  38.300  779.639
  38.320  922.247
  38.340  793.915
  38.360  579.325
  38.380  828.597
  38.400  942.146
  38.420  889.420
  38.440  724.954
  38.460  908.840
  38.480  648.925
  38.500  496.857
  38.520  809.719
  38.540  643.655
  38.560  675.757
  38.580  574.532
  38.600  827.807
  38.620  681.833
  38.640  752.377
  38.660  896.434
  38.680  371.317
  38.700  430.105
  38.720  697.519
  38.740  478.243
  38.760  460.795
  38.780  824.179
  38.800  590.509
  38.820  678.780
  38.840  808.299
  38.860  612.391
  38.880  811.110
  38.900  531.482
  38.920  325.953
  38.940  368.659
  38.960  638.345
  38.980  535.201
  39.000  668.348
  39.020  814.091
  39.040  381.253
  39.060  365.188
  39.080  527.508
  39.100  445.765
  39.120  776.371
  39.140  732.085
  39.160  591.855
  39.180  816.892
  39.200  731.958
  39.220  773.987
  39.240  808.206
  39.260  671.687
  39.280  811.040
  39.300  433.660
  39.320  780.112
  39.340  674.535
  39.360  559.978
  39.380  591.898
  39.400  781.645
  39.420  664.130
  39.440  400.638
  39.460  489.441
  39.480  788.424
  39.500  558.754
  39.520  768.147
  39.540  780.759
  39.560  771.137
  39.580  773.607
  39.600  543.307
  39.620  543.872
  39.640  380.576
  39.660  544.042
  39.680  459.018
  39.700  470.839
  39.720  418.675
  39.740  824.812
  39.760  403.034
  39.780  721.649
  39.800  775.992
  39.820  869.814
  39.840  832.133
  39.860  858.104
  39.880  732.156
  39.900  652.022
  39.920  580.493
  39.940  694.331
  39.960  705.429
  39.980  508.206
  40.000  577.330
  40.020  619.906
  40.040  530.422
  40.060  584.442
  40.080  956.797
  40.100  947.981
  40.120  620.336
  40.140  891.193
  40.160 1064.674
  40.180 1032.737
  40.200 1068.273
  40.220  806.792
  40.240  626.200
  40.260  976.440
  40.280 1123.930
  40.300  913.665
  40.320  629.046
  40.340 1027.982
  40.360 1085.765
  40.380  916.664
  40.400  941.765
  40.420  660.802
  40.440 1049.826
  40.460  805.427
  40.480 1047.021
  40.500 1041.795
  40.520  672.550
  40.540  562.416
  40.560  963.914
  40.580  890.814
  40.600  885.593
  40.620  702.676
  40.640  641.440
  40.660  710.705
  40.680  923.980
  40.700  496.331
  40.720  828.071
  40.740  650.317
  40.760  690.325
  40.780  657.164
  40.800  836.267
  40.820  557.902
  40.840  632.579
  40.860  724.267
  40.880  849.328
  40.900  700.856
  40.920  781.579
  40.940  775.422
  40.960  790.786
  40.980  927.970
  41.000  769.037
  41.020  855.571
  41.040  744.462
  41.060 1064.675
  41.080 1124.537
  41.100 1062.058
  41.120  827.788
  41.140 1055.277
  41.160  740.114
  41.180  812.903
  41.200 1012.237
  41.220  650.544
  41.240 1057.030
  41.260 1043.968
  41.280  599.268
  41.300  794.904
  41.320  633.674
  41.340  689.452
  41.360  880.474
  41.380  749.864
  41.400  538.671
  41.420  922.933
  41.440  890.581
  41.460  627.503
  41.480  558.681
  41.500  879.790
  41.520  970.874
  41.540  540.781
  41.560  621.280
  41.580  500.385
  41.600  757.573
  41.620  892.846
  41.640  524.964
  41.660  653.923
  41.680  432.945
  41.700  829.031
  41.720  632.419
  41.740  735.879
  41.760  433.294
  41.780  657.793
  41.800  420.105
  41.820  672.572
  41.840  889.407
  41.860  827.965
  41.880  460.603
  41.900  507.842
  41.920  508.343
  41.940  834.198
  41.960  639.619
  41.980  893.295
  42.000  545.371
  42.020  852.312
  42.040  926.349
  42.060  589.880
  42.080  893.488
  42.100 1108.724
  42.120  713.766
  42.140  908.909
  42.160  863.823
  42.180  751.281
  42.200  822.361
  42.220 1095.933
  42.240  895.922
  42.260 1092.154
  42.280  886.750
  42.300  994.926
  42.320  944.659
  42.340  709.759
  42.360 1165.208
  42.380  744.014
  42.400  808.066
  42.420  891.916
  42.440 1183.253
  42.460  934.153
  42.480 1165.286
  42.500 1152.868
  42.520 1048.483
  42.540  933.379
  42.560  886.550
  42.580 1183.615
  42.600  791.442
  42.620 1105.218
  42.640  832.208
  42.660  896.198
  42.680  917.189
  42.700  807.428
  42.720  792.710
  42.740 1047.991
  42.760  643.577
  42.780  828.981
  42.800 1002.538
  42.820  826.823
  42.840  959.439
  42.860  767.669
  42.880  878.677
  42.900  481.504
  42.920  600.121
  42.940  851.126
  42.960  721.658
  42.980  420.125
  43.000  437.656
  43.020  450.572
  43.040  364.140
  43.060  394.306
  43.080  833.632
  43.100  644.070
  43.120  741.185
  43.140  780.337
  43.160  829.061
  43.180  356.502
  43.200  798.765
  43.220  687.753
  43.240  398.614
  43.260  356.815
  43.280  390.768
  43.300  576.221
  43.320  708.555
  43.340  731.638
  43.360  820.161
  43.380  736.570
  43.400  320.796
  43.420  747.908
  43.440  512.086
  43.460  392.326
  43.480  772.671
  43.500  370.261
  43.520  579.160
  43.540  463.386
  43.560  513.611
  43.580  560.876
  43.600  387.726
  43.620  549.166
  43.640  348.635
  43.660  477.987
  43.680  377.373
  43.700  298.123
  43.720  743.595
  43.740  622.224
  43.760  424.666
  43.780  712.906
  43.800  828.830
  43.820  762.889
  43.840  839.507
  43.860  594.347
  43.880  410.870
  43.900  541.921
  43.920  599.151
  43.940  857.113
  43.960  707.324
  43.980  817.002
  44.000  725.527
