Sample	
Comments	
Filename	C:\WINDMAX\DATA\USERS\GEO\GEO_ER~1\Pyrenees\BULKMA~1\2M1-std2.raw
Goniometer	Ultima IV In-plane
Attachment	Auto sample changer (10 samples)
ScanningMode	2Theta/Theta
ScanningType	Continuos Scanning
X-Ray	40kV/44mA
DivSlit	2/3deg.
DivH.L.Slit	10mm
SctSlit	2/3deg.
RecSlit	0.3mm
Start	16
Stop	44
Step	0.02
Speed	0.3
Offset	0
  16.000  881.153
  16.020  454.094
  16.040  482.423
  16.060  718.341
  16.080  906.345
  16.100  721.564
  16.120  731.865
  16.140  664.408
  16.160  486.967
  16.180  974.011
  16.200  803.949
  16.220  443.175
  16.240  565.171
  16.260  877.774
  16.280  783.145
  16.300  590.178
  16.320  759.295
  16.340  819.095
  16.360  750.461
  16.380  697.701
  16.400  512.703
  16.420  592.837
  16.440  597.478
  16.460  619.151
  16.480  840.077
  16.500  521.481
  16.520  539.643
  16.540  823.038
  16.560  858.125
  16.580  673.108
  16.600  613.318
  16.620  500.627
  16.640  841.487
  16.660  605.290
  16.680  681.008
  16.700  753.217
  16.720  739.140
  16.740  456.183
  16.760  478.300
  16.780  410.833
  16.800  767.928
  16.820  517.680
  16.840  836.423
  16.860  646.010
  16.880  844.224
  16.900  462.916
  16.920  432.536
  16.940  788.107
  16.960  845.456
  16.980  584.259
  17.000  610.338
  17.020  681.412
  17.040  654.753
  17.060  392.612
  17.080  733.699
  17.100  448.670
  17.120  872.597
  17.140  884.156
  17.160  594.206
  17.180  566.494
  17.200  846.622
  17.220  909.916
  17.240  787.543
  17.260  877.866
  17.280  589.264
  17.300  778.282
  17.320  690.653
  17.340  695.858
  17.360  750.504
  17.380  683.079
  17.400  540.643
  17.420  849.104
  17.440  487.150
  17.460  499.249
  17.480  713.097
  17.500  841.756
  17.520  476.067
  17.540  522.101
  17.560  927.199
  17.580  586.578
  17.600  816.859
  17.620  558.923
  17.640  772.824
  17.660  952.672
  17.680 1094.520
  17.700 1069.628
  17.720  722.319
  17.740  748.430
  17.760 1088.555
  17.780 1300.458
  17.800 1049.723
  17.820  912.250
  17.840  988.925
  17.860 1172.835
  17.880 1233.124
  17.900 1356.437
  17.920 1364.576
  17.940 1481.221
  17.960 1458.005
  17.980 1053.115
  18.000 1247.695
  18.020 1210.396
  18.040 1479.406
  18.060 1383.935
  18.080 1058.709
  18.100 1346.990
  18.120 1055.796
  18.140 1145.484
  18.160  972.319
  18.180  753.455
  18.200  999.027
  18.220  730.670
  18.240  808.693
  18.260  823.298
  18.280  880.860
  18.300  736.562
  18.320 1026.756
  18.340  776.850
  18.360 1055.589
  18.380 1004.122
  18.400  537.545
  18.420  805.507
  18.440  671.572
  18.460  693.802
  18.480  641.415
  18.500  842.758
  18.520  836.673
  18.540  935.882
  18.560  533.102
  18.580  549.823
  18.600  806.550
  18.620  622.677
  18.640  502.354
  18.660  655.896
  18.680  708.159
  18.700  891.770
  18.720  705.003
  18.740  641.634
  18.760  808.775
  18.780  564.197
  18.800 1015.324
  18.820  846.214
  18.840  620.319
  18.860  889.746
  18.880  633.620
  18.900  543.366
  18.920  877.082
  18.940  929.380
  18.960  751.529
  18.980  549.271
  19.000  433.266
  19.020  744.190
  19.040  893.700
  19.060  675.635
  19.080  554.092
  19.100  739.953
  19.120  948.515
  19.140  868.905
  19.160  956.936
  19.180  691.958
  19.200  725.599
  19.220  730.942
  19.240  579.557
  19.260  901.779
  19.280  666.123
  19.300  769.638
  19.320  498.128
  19.340  994.873
  19.360  949.920
  19.380  584.173
  19.400  666.297
  19.420  699.295
  19.440  946.380
  19.460  900.799
  19.480  772.245
  19.500  824.884
  19.520  575.544
  19.540  632.388
  19.560  998.685
  19.580  949.127
  19.600 1001.367
  19.620  900.755
  19.640  934.283
  19.660  954.279
  19.680  982.623
  19.700 1213.191
  19.720 1182.685
  19.740 1322.549
  19.760 1054.614
  19.780 1330.355
  19.800 1622.965
  19.820 1578.116
  19.840 1613.144
  19.860 1652.752
  19.880 1863.072
  19.900 1994.668
  19.920 2397.532
  19.940 2352.565
  19.960 2556.817
  19.980 2619.776
  20.000 2862.572
  20.020 2624.569
  20.040 2592.976
  20.060 2574.881
  20.080 2376.307
  20.100 2269.880
  20.120 2223.332
  20.140 2098.701
  20.160 2075.557
  20.180 1616.738
  20.200 1669.276
  20.220 1436.755
  20.240 1121.938
  20.260 1384.842
  20.280 1452.227
  20.300 1321.182
  20.320 1201.937
  20.340 1214.844
  20.360  868.569
  20.380 1107.473
  20.400 1249.745
  20.420 1248.614
  20.440 1151.106
  20.460 1138.058
  20.480  948.411
  20.500 1126.716
  20.520  852.893
  20.540 1153.417
  20.560  887.789
  20.580 1148.713
  20.600  976.482
  20.620  995.959
  20.640 1008.159
  20.660 1286.603
  20.680 1203.919
  20.700 1057.647
  20.720 1292.656
  20.740 1125.387
  20.760  950.537
  20.780 1155.868
  20.800 1045.374
  20.820 1247.325
  20.840  949.145
  20.860 1018.398
  20.880 1266.145
  20.900  927.196
  20.920  792.826
  20.940 1087.494
  20.960  923.913
  20.980  792.495
  21.000 1004.532
  21.020  673.764
  21.040  608.487
  21.060 1111.355
  21.080  595.028
  21.100  867.635
  21.120 1022.446
  21.140  830.110
  21.160  708.731
  21.180  638.922
  21.200  899.742
  21.220  877.741
  21.240  896.733
  21.260  590.508
  21.280  590.194
  21.300  990.397
  21.320  895.923
  21.340  803.881
  21.360  807.959
  21.380  958.746
  21.400 1023.181
  21.420  603.373
  21.440 1075.538
  21.460  885.814
  21.480 1076.452
  21.500 1110.870
  21.520  985.039
  21.540  827.291
  21.560 1236.383
  21.580  779.396
  21.600 1227.831
  21.620  957.976
  21.640  847.509
  21.660 1000.639
  21.680 1164.135
  21.700 1161.422
  21.720 1128.077
  21.740 1240.307
  21.760  927.767
  21.780 1326.744
  21.800  879.099
  21.820  834.304
  21.840 1192.209
  21.860 1021.734
  21.880  924.166
  21.900  936.249
  21.920  706.813
  21.940  745.238
  21.960 1001.818
  21.980  918.096
  22.000  685.290
  22.020  780.690
  22.040  584.740
  22.060  895.228
  22.080  683.150
  22.100  608.776
  22.120 1012.626
  22.140 1050.126
  22.160  556.318
  22.180  906.998
  22.200  560.051
  22.220  878.541
  22.240  842.913
  22.260  826.577
  22.280  626.274
  22.300  676.847
  22.320  628.598
  22.340 1019.336
  22.360  796.001
  22.380 1014.102
  22.400 1011.681
  22.420  653.815
  22.440  963.349
  22.460  734.804
  22.480  925.528
  22.500 1103.980
  22.520  725.372
  22.540 1113.833
  22.560  886.718
  22.580 1076.301
  22.600  727.202
  22.620 1104.796
  22.640  722.175
  22.660 1184.523
  22.680  878.169
  22.700  985.221
  22.720 1023.852
  22.740  794.386
  22.760  976.863
  22.780 1253.794
  22.800  984.808
  22.820 1227.046
  22.840 1017.446
  22.860 1083.448
  22.880 1136.510
  22.900 1011.908
  22.920 1101.607
  22.940 1445.624
  22.960 1540.892
  22.980 1659.973
  23.000 1390.976
  23.020 1507.880
  23.040 1459.307
  23.060 1761.268
  23.080 1709.146
  23.100 1639.415
  23.120 1524.393
  23.140 1546.294
  23.160 1550.183
  23.180 1163.610
  23.200 1247.754
  23.220 1021.921
  23.240 1407.551
  23.260 1079.061
  23.280 1079.298
  23.300 1205.007
  23.320  833.500
  23.340  873.536
  23.360  761.963
  23.380 1063.508
  23.400  745.723
  23.420 1035.284
  23.440 1110.259
  23.460  955.475
  23.480  728.875
  23.500 1088.517
  23.520 1032.514
  23.540 1028.388
  23.560  979.439
  23.580 1149.747
  23.600 1149.238
  23.620  851.107
  23.640 1063.806
  23.660 1103.239
  23.680  909.634
  23.700  971.637
  23.720  872.275
  23.740 1334.233
  23.760 1135.248
  23.780 1040.039
  23.800 1074.414
  23.820  985.719
  23.840 1106.798
  23.860 1085.348
  23.880 1642.197
  23.900 1429.064
  23.920 1504.634
  23.940 1508.306
  23.960 1484.057
  23.980 1473.309
  24.000 1588.437
  24.020 1737.980
  24.040 1777.446
  24.060 1701.899
  24.080 1453.953
  24.100 1434.594
  24.120 1579.463
  24.140 1479.388
  24.160 1189.446
  24.180 1096.125
  24.200 1356.477
  24.220 1247.754
  24.240 1123.843
  24.260 1344.174
  24.280 1372.042
  24.300 1233.955
  24.320 1299.292
  24.340 1088.129
  24.360 1014.551
  24.380  817.406
  24.400  755.099
  24.420 1123.707
  24.440  906.140
  24.460  711.600
  24.480  658.168
  24.500 1065.349
  24.520 1098.615
  24.540  566.116
  24.560  724.960
  24.580 1002.393
  24.600  911.134
  24.620  790.968
  24.640  961.866
  24.660  567.543
  24.680  572.123
  24.700 1005.169
  24.720 1037.088
  24.740  693.961
  24.760  975.848
  24.780  897.047
  24.800  937.401
  24.820  596.633
  24.840  892.876
  24.860  884.212
  24.880  669.637
  24.900  625.279
  24.920  780.756
  24.940 1062.114
  24.960  716.826
  24.980 1066.288
  25.000  927.060
  25.020  787.438
  25.040  747.545
  25.060 1023.491
  25.080  769.540
  25.100 1257.906
  25.120  892.715
  25.140 1033.426
  25.160  923.193
  25.180 1073.956
  25.200 1235.749
  25.220 1289.316
  25.240 1283.277
  25.260 1171.717
  25.280 1076.922
  25.300 1261.139
  25.320 1114.003
  25.340 1327.202
  25.360 1255.891
  25.380 1427.720
  25.400 1132.993
  25.420 1204.886
  25.440 1505.683
  25.460 1523.271
  25.480 1495.794
  25.500 1548.541
  25.520 1313.398
  25.540 1629.787
  25.560 1600.681
  25.580 1863.942
  25.600 1495.589
  25.620 1523.690
  25.640 1453.799
  25.660 1628.506
  25.680 1909.617
  25.700 1528.426
  25.720 1433.960
  25.740 1468.510
  25.760 1343.635
  25.780 1340.390
  25.800 1136.935
  25.820 1071.066
  25.840 1186.020
  25.860  980.821
  25.880 1001.304
  25.900  956.708
  25.920 1028.514
  25.940 1177.027
  25.960  862.743
  25.980 1143.304
  26.000  783.982
  26.020  829.688
  26.040  909.388
  26.060 1032.726
  26.080 1088.630
  26.100  617.762
  26.120  640.080
  26.140  993.097
  26.160  881.420
  26.180  855.877
  26.200  798.197
  26.220  990.963
  26.240  854.903
  26.260  764.523
  26.280  807.072
  26.300 1015.287
  26.320  795.740
  26.340  751.508
  26.360  936.332
  26.380  981.263
  26.400  770.618
  26.420 1041.559
  26.440 1241.742
  26.460 1008.347
  26.480  923.848
  26.500 1332.296
  26.520 1355.678
  26.540 1458.440
  26.560 1035.484
  26.580 1298.599
  26.600 1455.343
  26.620 1575.017
  26.640 1778.647
  26.660 1613.269
  26.680 1869.056
  26.700 1913.421
  26.720 1686.022
  26.740 2232.489
  26.760 2310.168
  26.780 2201.728
  26.800 2418.180
  26.820 2162.742
  26.840 2198.666
  26.860 2462.050
  26.880 2504.867
  26.900 2135.665
  26.920 2333.027
  26.940 2031.179
  26.960 2179.932
  26.980 1813.240
  27.000 1786.552
  27.020 1705.303
  27.040 1495.870
  27.060 1314.666
  27.080 1549.821
  27.100 1552.746
  27.120 1110.865
  27.140 1288.403
  27.160  955.217
  27.180 1031.677
  27.200 1191.389
  27.220 1291.489
  27.240  815.904
  27.260 1194.440
  27.280 1123.800
  27.300  759.960
  27.320 1167.033
  27.340  713.954
  27.360 1049.522
  27.380 1158.655
  27.400 1145.886
  27.420  980.112
  27.440 1050.161
  27.460  914.925
  27.480  735.638
  27.500  973.663
  27.520 1006.813
  27.540 1160.048
  27.560 1060.069
  27.580 1017.654
  27.600  975.338
  27.620  679.108
  27.640  981.553
  27.660  739.192
  27.680  756.257
  27.700  870.639
  27.720  855.029
  27.740 1147.242
  27.760  843.261
  27.780 1067.302
  27.800 1151.003
  27.820 1266.930
  27.840  986.277
  27.860 1414.284
  27.880 1435.882
  27.900 1314.782
  27.920 1573.168
  27.940 1753.247
  27.960 1692.053
  27.980 1555.937
  28.000 1908.728
  28.020 1700.545
  28.040 1785.123
  28.060 1529.440
  28.080 1395.159
  28.100 1565.074
  28.120 1358.961
  28.140 1271.422
  28.160 1182.498
  28.180 1460.006
  28.200 1320.387
  28.220 1045.447
  28.240 1353.519
  28.260 1215.827
  28.280  835.384
  28.300 1179.197
  28.320 1255.144
  28.340 1136.374
  28.360 1092.949
  28.380  967.788
  28.400 1103.486
  28.420  674.925
  28.440 1140.734
  28.460  664.259
  28.480 1113.666
  28.500  922.746
  28.520  920.316
  28.540  795.882
  28.560 1001.230
  28.580 1098.807
  28.600  945.611
  28.620  966.414
  28.640  934.538
  28.660  690.998
  28.680  657.303
  28.700  807.633
  28.720  786.221
  28.740 1012.646
  28.760  847.647
  28.780 1010.354
  28.800 1024.198
  28.820  903.156
  28.840  968.674
  28.860  678.063
  28.880 1064.487
  28.900  777.081
  28.920  767.166
  28.940  781.655
  28.960  900.805
  28.980  639.018
  29.000  645.648
  29.020  595.313
  29.040  731.535
  29.060  805.316
  29.080  703.481
  29.100 1028.970
  29.120  736.637
  29.140  860.519
  29.160  551.842
  29.180  642.687
  29.200  725.326
  29.220  929.827
  29.240  872.755
  29.260 1002.734
  29.280  969.652
  29.300  995.723
  29.320  882.754
  29.340  866.160
  29.360  694.778
  29.380  959.396
  29.400  791.763
  29.420  936.814
  29.440  592.751
  29.460  744.306
  29.480  788.608
  29.500  605.968
  29.520  766.597
  29.540  799.216
  29.560  545.149
  29.580  969.614
  29.600  650.022
  29.620  789.391
  29.640  823.340
  29.660 1003.337
  29.680  897.120
  29.700  740.580
  29.720 1070.765
  29.740  815.001
  29.760 1018.835
  29.780  825.008
  29.800 1100.029
  29.820  924.010
  29.840 1319.704
  29.860 1301.327
  29.880 1120.514
  29.900 1513.900
  29.920 1595.087
  29.940 1656.660
  29.960 1654.080
  29.980 1268.966
  30.000 1500.784
  30.020 1322.271
  30.040 1741.935
  30.060 1279.885
  30.080 1688.161
  30.100 1419.390
  30.120 1189.930
  30.140 1481.237
  30.160 1441.149
  30.180 1271.538
  30.200 1120.346
  30.220 1112.128
  30.240  837.628
  30.260  785.280
  30.280 1059.622
  30.300  889.950
  30.320  637.228
  30.340 1054.543
  30.360  645.687
  30.380  881.708
  30.400  844.813
  30.420  656.177
  30.440  555.454
  30.460  642.288
  30.480  717.207
  30.500  718.009
  30.520  591.302
  30.540  700.206
  30.560  889.530
  30.580  880.384
  30.600  918.158
  30.620  513.893
  30.640  660.711
  30.660  488.355
  30.680  526.711
  30.700  624.663
  30.720  771.887
  30.740  809.708
  30.760  860.847
  30.780  591.234
  30.800  772.246
  30.820  609.357
  30.840  564.176
  30.860  710.184
  30.880  912.620
  30.900  673.943
  30.920  552.299
  30.940 1020.897
  30.960  610.539
  30.980 1033.573
  31.000  932.622
  31.020  787.217
  31.040 1079.261
  31.060  742.981
  31.080  985.562
  31.100 1200.459
  31.120 1171.133
  31.140 1059.040
  31.160  800.068
  31.180  995.397
  31.200 1290.970
  31.220 1288.333
  31.240 1324.949
  31.260 1364.544
  31.280 1159.430
  31.300 1263.575
  31.320 1666.936
  31.340 1455.288
  31.360 1673.319
  31.380 1343.845
  31.400 1748.042
  31.420 1728.111
  31.440 1306.422
  31.460 1660.538
  31.480 1257.954
  31.500 1397.534
  31.520 1301.291
  31.540 1287.898
  31.560 1448.338
  31.580 1572.386
  31.600 1615.696
  31.620 1344.456
  31.640 1641.070
  31.660 1327.159
  31.680 1571.531
  31.700 1423.036
  31.720 1345.869
  31.740 1257.977
  31.760 1461.244
  31.780 1133.901
  31.800 1330.225
  31.820 1214.932
  31.840 1290.437
  31.860 1516.084
  31.880 1228.614
  31.900 1180.474
  31.920 1324.435
  31.940 1054.642
  31.960 1140.165
  31.980 1210.986
  32.000  794.992
  32.020  813.019
  32.040  795.394
  32.060  952.862
  32.080 1283.722
  32.100  868.835
  32.120  997.188
  32.140  894.953
  32.160 1097.108
  32.180 1076.966
  32.200 1197.684
  32.220 1402.681
  32.240 1292.073
  32.260 1346.576
  32.280 1122.973
  32.300 1164.178
  32.320  923.912
  32.340  993.664
  32.360  884.711
  32.380  813.266
  32.400  686.518
  32.420 1098.781
  32.440 1057.065
  32.460  927.449
  32.480  768.326
  32.500  876.054
  32.520  656.623
  32.540  648.306
  32.560  715.955
  32.580  678.113
  32.600  668.713
  32.620  869.373
  32.640  538.288
  32.660  622.772
  32.680  841.782
  32.700  774.843
  32.720  660.065
  32.740  507.280
  32.760  724.196
  32.780  413.959
  32.800  678.334
  32.820  909.324
  32.840  525.306
  32.860  886.259
  32.880  843.095
  32.900  919.877
  32.920  896.290
  32.940  532.892
  32.960  482.157
  32.980  612.928
  33.000  825.548
  33.020 1004.881
  33.040  653.892
  33.060  738.822
  33.080  549.660
  33.100  757.211
  33.120  462.768
  33.140  862.017
  33.160  684.472
  33.180  788.319
  33.200  612.530
  33.220  537.850
  33.240  764.597
  33.260  453.237
  33.280  779.312
  33.300  836.764
  33.320  423.277
  33.340  497.635
  33.360  795.340
  33.380  686.682
  33.400  728.440
  33.420  669.044
  33.440  792.776
  33.460  647.602
  33.480  672.415
  33.500  864.197
  33.520  517.781
  33.540  751.420
  33.560  810.564
  33.580  751.774
  33.600  822.008
  33.620  540.955
  33.640  930.505
  33.660  882.557
  33.680  623.613
  33.700  848.153
  33.720  699.392
  33.740  905.925
  33.760  564.727
  33.780  939.278
  33.800  634.715
  33.820  868.216
  33.840  929.811
  33.860  507.869
  33.880  778.894
  33.900  853.309
  33.920  966.293
  33.940  805.094
  33.960  508.404
  33.980  573.655
  34.000  659.653
  34.020  731.823
  34.040  867.992
  34.060  754.709
  34.080  871.487
  34.100  621.880
  34.120  884.675
  34.140  796.058
  34.160  961.236
  34.180  553.118
  34.200  632.982
  34.220  637.715
  34.240  576.521
  34.260  567.302
  34.280  522.073
  34.300  905.167
  34.320  868.361
  34.340  511.469
  34.360  984.488
  34.380  818.170
  34.400  978.872
  34.420  901.129
  34.440  588.220
  34.460  983.323
  34.480  917.821
  34.500  675.994
  34.520 1055.629
  34.540  837.857
  34.560 1044.823
  34.580 1198.626
  34.600  919.779
  34.620 1259.583
  34.640 1327.358
  34.660 1307.079
  34.680 1590.924
  34.700 1681.640
  34.720 1658.665
  34.740 1493.385
  34.760 1588.541
  34.780 1458.530
  34.800 1743.322
  34.820 1930.352
  34.840 1879.613
  34.860 1964.271
  34.880 1909.086
  34.900 2030.882
  34.920 1794.280
  34.940 1945.266
  34.960 1732.143
  34.980 1805.492
  35.000 1991.881
  35.020 2396.321
  35.040 2516.204
  35.060 2166.718
  35.080 2309.711
  35.100 2704.727
  35.120 2575.490
  35.140 2785.266
  35.160 2744.166
  35.180 2676.898
  35.200 2721.548
  35.220 2541.326
  35.240 2603.342
  35.260 2527.966
  35.280 2479.933
  35.300 2179.924
  35.320 1905.054
  35.340 1768.106
  35.360 1480.014
  35.380 1356.696
  35.400 1267.275
  35.420 1101.535
  35.440 1318.962
  35.460 1307.607
  35.480  875.495
  35.500  963.302
  35.520 1147.840
  35.540  813.306
  35.560  903.299
  35.580  639.355
  35.600  646.246
  35.620  713.570
  35.640  897.897
  35.660  668.415
  35.680 1046.170
  35.700  733.261
  35.720  800.720
  35.740  918.898
  35.760  733.098
  35.780  847.299
  35.800  721.368
  35.820 1036.035
  35.840  975.546
  35.860  751.381
  35.880  608.505
  35.900  988.317
  35.920  731.605
  35.940  863.911
  35.960 1059.300
  35.980  761.947
  36.000  666.515
  36.020  896.287
  36.040  867.653
  36.060 1010.923
  36.080 1071.560
  36.100 1026.269
  36.120  859.099
  36.140  663.970
  36.160  675.085
  36.180  630.190
  36.200 1122.823
  36.220 1052.246
  36.240  656.261
  36.260  769.331
  36.280  718.898
  36.300  772.242
  36.320  901.903
  36.340  598.488
  36.360  976.801
  36.380 1041.510
  36.400  883.040
  36.420  646.045
  36.440  791.553
  36.460 1013.024
  36.480  751.989
  36.500  745.592
  36.520 1268.229
  36.540 1119.258
  36.560 1238.120
  36.580 1238.176
  36.600  898.121
  36.620 1033.471
  36.640 1180.468
  36.660 1086.894
  36.680 1179.781
  36.700 1172.094
  36.720  958.608
  36.740  934.365
  36.760 1141.580
  36.780  966.279
  36.800 1133.944
  36.820  828.640
  36.840  784.184
  36.860 1011.590
  36.880  799.783
  36.900 1006.146
  36.920  955.142
  36.940  857.090
  36.960 1032.436
  36.980  786.271
  37.000  960.578
  37.020  848.080
  37.040  808.584
  37.060  770.169
  37.080  848.708
  37.100  978.367
  37.120  599.206
  37.140  801.478
  37.160  879.365
  37.180  756.430
  37.200  792.104
  37.220 1051.713
  37.240  768.127
  37.260  921.833
  37.280  559.916
  37.300  854.284
  37.320  686.192
  37.340  542.015
  37.360  976.128
  37.380 1026.730
  37.400  680.140
  37.420  622.082
  37.440  686.568
  37.460  869.349
  37.480 1017.762
  37.500  949.603
  37.520  914.907
  37.540  844.606
  37.560 1007.115
  37.580  925.340
  37.600 1142.043
  37.620  908.911
  37.640  808.136
  37.660 1060.673
  37.680 1045.004
  37.700  785.478
  37.720 1119.836
  37.740 1065.612
  37.760 1017.490
  37.780 1319.005
  37.800 1142.407
  37.820 1135.386
  37.840 1207.649
  37.860 1274.417
  37.880 1170.541
  37.900 1023.482
  37.920 1258.110
  37.940 1175.329
  37.960 1089.866
  37.980 1238.079
  38.000 1337.004
  38.020  872.628
  38.040 1198.869
  38.060 1271.345
  38.080  893.317
  38.100 1261.609
  38.120 1012.040
  38.140  850.791
  38.160 1024.517
  38.180  783.938
  38.200 1008.876
  38.220  888.416
  38.240  950.885
  38.260  659.012
  38.280  733.714
  38.300  617.996
  38.320  713.612
  38.340  702.786
  38.360 1027.695
  38.380  815.698
  38.400  921.279
  38.420  657.293
  38.440  681.148
  38.460  709.016
  38.480  623.783
  38.500  721.091
  38.520  661.152
  38.540  808.882
  38.560  890.828
  38.580  661.063
  38.600  590.941
  38.620  405.119
  38.640  726.126
  38.660  738.506
  38.680  492.461
  38.700  580.500
  38.720  830.037
  38.740  787.404
  38.760  486.609
  38.780  835.253
  38.800  460.312
  38.820  877.763
  38.840  551.546
  38.860  406.041
  38.880  459.354
  38.900  447.876
  38.920  375.486
  38.940  488.852
  38.960  631.935
  38.980  763.541
  39.000  606.217
  39.020  557.333
  39.040  840.959
  39.060  364.081
  39.080  779.426
  39.100  764.888
  39.120  679.695
  39.140  529.311
  39.160  395.262
  39.180  354.726
  39.200  436.012
  39.220  450.374
  39.240  605.987
  39.260  526.910
  39.280  637.246
  39.300  443.404
  39.320  712.554
  39.340  754.516
  39.360  387.482
  39.380  422.411
  39.400  850.281
  39.420  469.769
  39.440  554.334
  39.460  849.789
  39.480  517.840
  39.500  753.137
  39.520  735.544
  39.540  522.965
  39.560  382.962
  39.580  768.956
  39.600  827.569
  39.620  553.948
  39.640  749.468
  39.660  557.738
  39.680  517.319
  39.700  604.085
  39.720  402.752
  39.740  538.618
  39.760  385.831
  39.780  709.404
  39.800  508.666
  39.820  559.643
  39.840  797.641
  39.860  885.541
  39.880  515.769
  39.900  396.929
  39.920  540.251
  39.940  531.660
  39.960  465.370
  39.980  582.328
  40.000  538.890
  40.020  449.424
  40.040  750.223
  40.060  605.151
  40.080  646.851
  40.100  902.662
  40.120  632.871
  40.140  936.260
  40.160  566.388
  40.180  848.608
  40.200 1015.019
  40.220 1120.245
  40.240  642.880
  40.260  692.879
  40.280  752.835
  40.300  646.889
  40.320  645.251
  40.340  645.977
  40.360  667.859
  40.380  889.838
  40.400 1096.582
  40.420 1020.890
  40.440 1038.279
  40.460  827.161
  40.480  883.481
  40.500  851.209
  40.520  729.894
  40.540  670.956
  40.560  859.424
  40.580  994.240
  40.600 1030.380
  40.620  903.756
  40.640  675.978
  40.660  586.359
  40.680  766.921
  40.700  625.072
  40.720  808.023
  40.740  543.116
  40.760  769.660
  40.780  908.816
  40.800  986.786
  40.820  758.285
  40.840 1032.299
  40.860  703.179
  40.880  851.530
  40.900  958.593
  40.920  850.401
  40.940 1028.433
  40.960 1132.700
  40.980  904.007
  41.000  894.971
  41.020  837.287
  41.040  995.969
  41.060 1139.603
  41.080  987.689
  41.100  778.824
  41.120  991.744
  41.140  928.097
  41.160  867.849
  41.180  744.087
  41.200  944.550
  41.220  989.651
  41.240  683.453
  41.260  584.817
  41.280  724.528
  41.300  965.498
  41.320 1048.622
  41.340  947.548
  41.360  583.966
  41.380  699.127
  41.400  671.522
  41.420  715.045
  41.440  598.202
  41.460  954.234
  41.480  739.365
  41.500  734.306
  41.520  665.989
  41.540  608.152
  41.560  843.762
  41.580  848.461
  41.600  687.826
  41.620  867.987
  41.640  965.659
  41.660  547.235
  41.680  451.432
  41.700  914.972
  41.720  615.082
  41.740  623.553
  41.760  933.564
  41.780  455.867
  41.800  548.053
  41.820  782.585
  41.840  743.090
  41.860  458.386
  41.880  656.006
  41.900  904.760
  41.920  970.406
  41.940  648.268
  41.960  942.786
  41.980  578.858
  42.000  861.927
  42.020  868.194
  42.040  658.594
  42.060  747.557
  42.080 1077.600
  42.100  648.404
  42.120  702.372
  42.140 1135.798
  42.160  808.530
  42.180  672.480
  42.200  985.597
  42.220 1169.958
  42.240 1022.882
  42.260  921.483
  42.280 1195.598
  42.300  994.162
  42.320 1178.188
  42.340 1169.117
  42.360  785.603
  42.380  989.436
  42.400  890.428
  42.420 1154.540
  42.440  912.779
  42.460  826.528
  42.480 1219.958
  42.500 1154.507
  42.520 1031.632
  42.540 1210.881
  42.560 1139.745
  42.580 1182.364
  42.600 1274.601
  42.620  814.433
  42.640  799.085
  42.660  894.434
  42.680 1010.292
  42.700  941.261
  42.720  917.893
  42.740  920.785
  42.760 1047.593
  42.780  582.051
  42.800  851.287
  42.820  799.331
  42.840  699.035
  42.860  580.492
  42.880  882.837
  42.900  791.734
  42.920  791.080
  42.940  663.401
  42.960  538.691
  42.980  416.394
  43.000  490.496
  43.020  780.474
  43.040  497.710
  43.060  596.347
  43.080  833.991
  43.100  789.146
  43.120  351.433
  43.140  447.821
  43.160  474.171
  43.180  309.183
  43.200  637.353
  43.220  777.382
  43.240  485.788
  43.260  704.469
  43.280  408.980
  43.300  509.351
  43.320  738.090
  43.340  603.468
  43.360  519.037
  43.380  788.742
  43.400  297.592
  43.420  620.569
  43.440  467.125
  43.460  775.840
  43.480  343.283
  43.500  411.070
  43.520  713.315
  43.540  778.108
  43.560  702.979
  43.580  538.412
  43.600  624.615
  43.620  691.895
  43.640  781.795
  43.660  531.174
  43.680  353.531
  43.700  522.876
  43.720  762.880
  43.740  727.757
  43.760  649.024
  43.780  602.661
  43.800  410.333
  43.820  359.659
  43.840  577.715
  43.860  841.987
  43.880  841.914
  43.900  803.630
  43.920  797.836
  43.940  479.758
  43.960  448.384
  43.980  646.562
  44.000  714.603
